 -7.14417000e-001
 -5.50690000e-001
 -4.58832000e-001
 -5.58777000e-001
 -5.72815000e-001
 -7.22198000e-001
 -4.07257000e-001
 -3.02887000e-001
 -3.34625000e-001
 -4.76990000e-001
 -5.56335000e-001
 -7.49359000e-001
 -7.15332000e-001
 -5.23529000e-001
 -4.70276000e-001
 -5.70221000e-001
 -7.44324000e-001
 -6.12793000e-001
 -4.41437000e-001
 -3.80096000e-001
 -4.36401000e-001
 -5.92194000e-001
 -8.56171000e-001
 -6.03485000e-001
 -3.71704000e-001
 -3.69263000e-001
 -5.29938000e-001
 -7.33490000e-001
 -7.13196000e-001
 -6.36902000e-001
 -3.89557000e-001
 -6.63605000e-001
 -8.86383000e-001
 -8.67310000e-001
 -6.88629000e-001
 -5.16357000e-001
 -5.58472000e-001
 -6.55518000e-001
 -7.90710000e-001
 -7.51190000e-001
 -5.26886000e-001
 -4.28314000e-001
 -6.32477000e-001
 -7.37305000e-001
 -9.17358000e-001
 -8.53119000e-001
 -6.72150000e-001
 -4.78821000e-001
 -7.26624000e-001
 -7.77740000e-001
 -6.97632000e-001
 -7.67517000e-001
 -6.43768000e-001
 -5.63354000e-001
 -5.85632000e-001
 -7.78961000e-001
 -6.80389000e-001
 -6.04095000e-001
 -4.43268000e-001
 -5.27649000e-001
 -7.58057000e-001
 -8.04138000e-001
 -6.50787000e-001
 -4.91180000e-001
 -6.23169000e-001
 -7.32727000e-001
 -7.30286000e-001
 -5.61981000e-001
 -6.26984000e-001
 -4.92859000e-001
 -6.92139000e-001
 -7.96967000e-001
 -9.25903000e-001
 -8.50983000e-001
 -5.68237000e-001
 -5.83344000e-001
 -7.15942000e-001
 -8.03375000e-001
 -8.72498000e-001
 -8.06274000e-001
 -5.65643000e-001
 -7.90863000e-001
 -8.84705000e-001
 -8.97369000e-001
 -7.04041000e-001
 -6.33545000e-001
 -6.17218000e-001
 -6.52313000e-001
 -8.46863000e-001
 -6.57043000e-001
 -5.28717000e-001
 -5.31006000e-001
 -5.86700000e-001
 -6.77643000e-001
 -8.18939000e-001
 -8.08716000e-001
 -7.61261000e-001
 -6.53534000e-001
 -7.82318000e-001
 -8.70361000e-001
 -7.01752000e-001
 -4.81720000e-001
 -4.05579000e-001
 -3.76587000e-001
 -5.22156000e-001
 -7.55005000e-001
 -5.65491000e-001
 -4.50287000e-001
 -4.51660000e-001
 -5.15289000e-001
 -4.67377000e-001
 -6.05164000e-001
 -5.94025000e-001
 -3.19977000e-001
 -4.53949000e-001
 -5.09491000e-001
 -5.56641000e-001
 -4.49219000e-001
 -3.31421000e-001
 -2.99835000e-001
 -2.97089000e-001
 -3.97797000e-001
 -4.22058000e-001
 -2.60315000e-001
 -1.70593000e-001
 -2.64130000e-001
 -3.90320000e-001
 -4.42963000e-001
 -2.37122000e-001
 -2.43988000e-001
 -1.03149000e-001
 -2.91595000e-001
 -3.55682000e-001
 -3.23334000e-001
 -1.30615000e-001
 -2.42610000e-002
 -1.37787000e-001
 -2.85034000e-001
 -5.61371000e-001
 -2.76947000e-001
 -1.49994000e-001
 -2.48720000e-002
 -2.64740000e-001
 -3.85590000e-001
 -3.98560000e-001
 -2.80609000e-001
 -1.54419000e-001
 -1.15967000e-001
 -2.44904000e-001
 -3.69873000e-001
 -3.26080000e-001
 -1.95312000e-001
 1.35800000e-002
 -9.10950000e-002
 -3.13110000e-001
 -4.65088000e-001
 -1.64642000e-001
 1.84630000e-002
 1.11390000e-002
 -3.05634000e-001
 -5.53741000e-001
 -5.79224000e-001
 -4.73633000e-001
 -2.06757000e-001
 -4.23889000e-001
 -5.62897000e-001
 -6.61163000e-001
 -3.81622000e-001
 -3.20892000e-001
 -4.06189000e-001
 -5.24597000e-001
 -7.51801000e-001
 -8.12378000e-001
 -6.82678000e-001
 -5.50232000e-001
 -6.50787000e-001
 -6.97174000e-001
 -8.04291000e-001
 -7.05719000e-001
 -5.92651000e-001
 -4.15039000e-001
 -6.94122000e-001
 -9.46350000e-001
 -8.91876000e-001
 -6.91681000e-001
 -6.75812000e-001
 -6.27136000e-001
 -6.77795000e-001
 -8.66394000e-001
 -7.73773000e-001
 -6.27594000e-001
 -5.24750000e-001
 -8.48846000e-001
 -9.60083000e-001
 -9.84497000e-001
 -9.19800000e-001
 -7.74384000e-001
 -6.40259000e-001
 -8.51746000e-001
 -9.98993000e-001
 -8.42285000e-001
 -7.34100000e-001
 -6.25763000e-001
 -7.61871000e-001
 -8.28552000e-001
 -9.75647000e-001
 -8.64258000e-001
 -7.18231000e-001
 -6.49872000e-001
 -7.48596000e-001
 -8.90045000e-001
 -8.72040000e-001
 -9.14917000e-001
 -7.39441000e-001
 -9.17053000e-001
 -1.14166300e+000
 -1.18316700e+000
 -8.54034000e-001
 -7.69043000e-001
 -7.50275000e-001
 -7.32117000e-001
 -9.34448000e-001
 -9.50470000e-001
 -8.09479000e-001
 -6.33392000e-001
 -8.17566000e-001
 -9.29718000e-001
 -9.75037000e-001
 -7.89185000e-001
 -7.03888000e-001
 -6.56433000e-001
 -8.70514000e-001
 -1.12731900e+000
 -1.05728100e+000
 -9.78699000e-001
 -9.42841000e-001
 -8.73260000e-001
 -8.72192000e-001
 -1.15768400e+000
 -8.70056000e-001
 -6.94733000e-001
 -5.96924000e-001
 -7.71942000e-001
 -8.76007000e-001
 -9.90448000e-001
 -9.64508000e-001
 -6.96869000e-001
 -6.67877000e-001
 -8.38623000e-001
 -9.04388000e-001
 -7.89337000e-001
 -7.84149000e-001
 -8.22906000e-001
 -7.97882000e-001
 -8.42743000e-001
 -1.00997900e+000
 -7.64313000e-001
 -5.61523000e-001
 -6.18439000e-001
 -8.44421000e-001
 -8.22754000e-001
 -8.21381000e-001
 -8.39996000e-001
 -6.53839000e-001
 -8.29315000e-001
 -9.87854000e-001
 -1.01791400e+000
 -9.42383000e-001
 -8.57086000e-001
 -7.31354000e-001
 -7.98950000e-001
 -9.14612000e-001
 -8.74786000e-001
 -6.21796000e-001
 -3.75061000e-001
 -4.24957000e-001
 -3.88184000e-001
 -4.41742000e-001
 -1.90582000e-001
 4.47080000e-002
 4.15649000e-001
 5.94025000e-001
 7.28302000e-001
 1.22665400e+000
 1.77047700e+000
 2.15820300e+000
 2.31338500e+000
 2.33917200e+000
 2.26562500e+000
 2.49252300e+000
 2.64450100e+000
 2.63244600e+000
 2.64389000e+000
 2.64434800e+000
 2.65625000e+000
 2.64785800e+000
 2.65029900e+000
 2.52243000e+000
 1.85043300e+000
 1.21368400e+000
 9.36737000e-001
 7.79877000e-001
 7.66449000e-001
 6.32019000e-001
 3.86200000e-001
 2.09808000e-001
 1.81732000e-001
 8.22450000e-002
 -2.17438000e-001
 -4.84772000e-001
 -5.90820000e-001
 -4.83398000e-001
 -5.28259000e-001
 -5.88989000e-001
 -7.85980000e-001
 -1.02020300e+000
 -1.07879600e+000
 -9.44519000e-001
 -1.00952100e+000
 -1.19888300e+000
 -1.42135600e+000
 -1.80465700e+000
 -1.78802500e+000
 -1.76422100e+000
 -1.70181300e+000
 -1.86782800e+000
 -1.89361600e+000
 -1.92565900e+000
 -1.70089700e+000
 -1.64215100e+000
 -1.56936600e+000
 -1.74758900e+000
 -1.89498900e+000
 -1.72042800e+000
 -1.39541600e+000
 -1.18454000e+000
 -1.23779300e+000
 -1.26388500e+000
 -1.41250600e+000
 -1.17324800e+000
 -1.03485100e+000
 -9.65118000e-001
 -1.01837200e+000
 -9.31396000e-001
 -8.51593000e-001
 -8.25348000e-001
 -6.57501000e-001
 -7.61261000e-001
 -9.08966000e-001
 -1.00524900e+000
 -6.52161000e-001
 -4.20380000e-001
 -3.30200000e-001
 -4.47998000e-001
 -6.29425000e-001
 -7.79877000e-001
 -5.46875000e-001
 -5.36804000e-001
 -6.42242000e-001
 -6.63452000e-001
 -7.12585000e-001
 -6.33698000e-001
 -5.38025000e-001
 -4.46320000e-001
 -6.57043000e-001
 -6.98395000e-001
 -6.98700000e-001
 -5.40161000e-001
 -5.43671000e-001
 -5.47333000e-001
 -6.56738000e-001
 -7.92389000e-001
 -6.95648000e-001
 -6.33087000e-001
 -5.43365000e-001
 -6.86340000e-001
 -6.27441000e-001
 -6.26831000e-001
 -4.38538000e-001
 -3.55225000e-001
 -3.76892000e-001
 -5.57404000e-001
 -7.52106000e-001
 -6.90002000e-001
 -5.99976000e-001
 -3.86353000e-001
 -4.27856000e-001
 -4.57153000e-001
 -6.39954000e-001
 -4.09241000e-001
 -2.89459000e-001
 -3.57208000e-001
 -4.76990000e-001
 -5.74799000e-001
 -7.39441000e-001
 -6.43005000e-001
 -2.88086000e-001
 -2.56805000e-001
 -4.89502000e-001
 -7.75452000e-001
 -5.96771000e-001
 -4.85687000e-001
 -4.36249000e-001
 -5.31616000e-001
 -5.75104000e-001
 -6.11267000e-001
 -4.62952000e-001
 -3.82843000e-001
 -5.35736000e-001
 -6.10046000e-001
 -6.63605000e-001
 -6.40411000e-001
 -5.51605000e-001
 -2.67181000e-001
 -5.46112000e-001
 -6.24847000e-001
 -6.15540000e-001
 -6.06842000e-001
 -4.89960000e-001
 -4.22821000e-001
 -2.95715000e-001
 -5.83191000e-001
 -4.87823000e-001
 -2.58179000e-001
 -2.01111000e-001
 -3.53394000e-001
 -5.65338000e-001
 -5.87921000e-001
 -4.14734000e-001
 -2.20184000e-001
 -2.71759000e-001
 -4.60663000e-001
 -4.99115000e-001
 -4.29535000e-001
 -3.17078000e-001
 -2.78168000e-001
 -3.55988000e-001
 -4.39301000e-001
 -6.21948000e-001
 -3.85284000e-001
 -1.95923000e-001
 -2.60773000e-001
 -3.83911000e-001
 -4.12750000e-001
 -4.28772000e-001
 -3.38898000e-001
 -7.11060000e-002
 -3.07312000e-001
 -3.69720000e-001
 -3.90472000e-001
 -2.63214000e-001
 -2.59552000e-001
 -2.37274000e-001
 -9.42990000e-002
 -2.10266000e-001
 -4.08325000e-001
 -3.24554000e-001
 -2.22015000e-001
 -3.48206000e-001
 -4.05273000e-001
 -4.23584000e-001
 -3.25928000e-001
 -2.56500000e-001
 -8.05660000e-002
 -2.40631000e-001
 -3.65601000e-001
 -2.87170000e-001
 -2.30865000e-001
 -1.18103000e-001
 -1.62201000e-001
 -1.44958000e-001
 -3.52631000e-001
 -2.77710000e-001
 -3.73840000e-002
 1.00555000e-001
 -4.94380000e-002
 -1.44196000e-001
 -3.52173000e-001
 -1.59912000e-001
 1.42975000e-001
 1.86160000e-002
 -1.60370000e-001
 -2.52686000e-001
 -1.17035000e-001
 4.62340000e-002
 2.03857000e-001
 1.48010000e-001
 1.53198000e-001
 9.30800000e-003
 5.26430000e-002
 1.78833000e-001
 1.08490000e-001
 -7.15640000e-002
 -1.47095000e-001
 -3.43320000e-002
 1.19171000e-001
 3.96881000e-001
 2.30713000e-001
 8.69800000e-003
 -1.80664000e-001
 1.10016000e-001
 2.88086000e-001
 4.11835000e-001
 3.64075000e-001
 1.42517000e-001
 2.10876000e-001
 2.69928000e-001
 4.17786000e-001
 4.28467000e-001
 3.83148000e-001
 2.79999000e-001
 3.48969000e-001
 4.40521000e-001
 5.39398000e-001
 2.94342000e-001
 1.33362000e-001
 3.21350000e-001
 3.83453000e-001
 5.05981000e-001
 5.08575000e-001
 5.46570000e-001
 3.38135000e-001
 5.08575000e-001
 5.69153000e-001
 6.30951000e-001
 4.72565000e-001
 4.39148000e-001
 3.88184000e-001
 4.86755000e-001
 6.73370000e-001
 5.27954000e-001
 3.88947000e-001
 3.70789000e-001
 4.28925000e-001
 6.58417000e-001
 6.97784000e-001
 6.19812000e-001
 5.46417000e-001
 4.33350000e-001
 7.52106000e-001
 7.75604000e-001
 6.56281000e-001
 5.26428000e-001
 4.05121000e-001
 4.00238000e-001
 5.02167000e-001
 8.04749000e-001
 7.35931000e-001
 6.09589000e-001
 5.45959000e-001
 7.14111000e-001
 7.89490000e-001
 7.52716000e-001
 7.01141000e-001
 5.88379000e-001
 6.00891000e-001
 7.96204000e-001
 1.12945600e+000
 9.06982000e-001
 7.05719000e-001
 5.58777000e-001
 5.03540000e-001
 5.90668000e-001
 7.37152000e-001
 5.29175000e-001
 3.46527000e-001
 4.22821000e-001
 5.03998000e-001
 6.71997000e-001
 6.55518000e-001
 5.75256000e-001
 3.10822000e-001
 4.00238000e-001
 4.94995000e-001
 5.85632000e-001
 5.20325000e-001
 3.73077000e-001
 8.43810000e-002
 2.04620000e-001
 4.45709000e-001
 2.60773000e-001
 -2.85340000e-002
 -1.29700000e-001
 9.01790000e-002
 1.80664000e-001
 2.85492000e-001
 2.60468000e-001
 1.49689000e-001
 -9.84190000e-002
 5.20320000e-002
 1.82037000e-001
 8.11770000e-002
 -2.03247000e-001
 -4.17786000e-001
 -3.60413000e-001
 -2.11945000e-001
 3.29590000e-002
 -2.17896000e-001
 -3.01819000e-001
 -3.94287000e-001
 -2.39716000e-001
 -1.14594000e-001
 -1.24359000e-001
 -3.27148000e-001
 -5.12390000e-001
 -4.59137000e-001
 -3.68042000e-001
 -3.37830000e-001
 -3.74603000e-001
 -4.36401000e-001
 -5.13000000e-001
 -3.64380000e-001
 -2.77557000e-001
 -1.91498000e-001
 -4.26941000e-001
 -6.57654000e-001
 -6.66504000e-001
 -5.62592000e-001
 -3.80707000e-001
 -4.12903000e-001
 -4.84924000e-001
 -7.25250000e-001
 -4.99115000e-001
 -3.60565000e-001
 -3.70178000e-001
 -4.92249000e-001
 -6.54755000e-001
 -6.99615000e-001
 -5.99518000e-001
 -4.12445000e-001
 -4.31824000e-001
 -5.31921000e-001
 -6.93359000e-001
 -5.33447000e-001
 -4.30756000e-001
 -4.27094000e-001
 -6.15082000e-001
 -7.19299000e-001
 -7.68127000e-001
 -5.25970000e-001
 -4.17938000e-001
 -4.53644000e-001
 -4.86450000e-001
 -5.95856000e-001
 -6.12335000e-001
 -6.00586000e-001
 -5.16510000e-001
 -7.09534000e-001
 -7.44019000e-001
 -6.53839000e-001
 -4.95911000e-001
 -5.32684000e-001
 -5.45197000e-001
 -5.47943000e-001
 -6.21796000e-001
 -4.85840000e-001
 -4.57916000e-001
 -4.37012000e-001
 -4.46014000e-001
 -6.02722000e-001
 -8.05054000e-001
 -7.83997000e-001
 -5.62744000e-001
 -4.37164000e-001
 -6.67725000e-001
 -9.00574000e-001
 -7.64160000e-001
 -6.32629000e-001
 -5.04761000e-001
 -4.76837000e-001
 -5.34973000e-001
 -7.06329000e-001
 -4.93011000e-001
 -2.81677000e-001
 -2.97394000e-001
 -5.29938000e-001
 -6.54297000e-001
 -6.23474000e-001
 -6.46210000e-001
 -5.67932000e-001
 -8.63190000e-001
 -9.65424000e-001
 -9.20258000e-001
 -5.84564000e-001
 -6.05621000e-001
 -6.13861000e-001
 -5.75714000e-001
 -6.74591000e-001
 -7.04041000e-001
 -5.24445000e-001
 -3.70483000e-001
 -5.24902000e-001
 -7.82623000e-001
 -8.34656000e-001
 -6.64368000e-001
 -6.01501000e-001
 -4.86450000e-001
 -6.38885000e-001
 -8.20923000e-001
 -6.57349000e-001
 -5.49164000e-001
 -4.56543000e-001
 -5.31464000e-001
 -6.27441000e-001
 -8.23975000e-001
 -5.47638000e-001
 -4.09241000e-001
 -3.56903000e-001
 -5.27039000e-001
 -6.08978000e-001
 -5.91736000e-001
 -5.48553000e-001
 -4.63715000e-001
 -4.97437000e-001
 -7.03278000e-001
 -9.34143000e-001
 -6.59790000e-001
 -5.00031000e-001
 -3.50189000e-001
 -4.52118000e-001
 -6.48041000e-001
 -8.73718000e-001
 -6.75659000e-001
 -4.18549000e-001
 -4.00848000e-001
 -5.52979000e-001
 -7.83234000e-001
 -6.84967000e-001
 -5.09033000e-001
 -2.86255000e-001
 -6.11420000e-001
 -8.79059000e-001
 -9.16138000e-001
 -6.30341000e-001
 -4.55933000e-001
 -4.89655000e-001
 -6.09894000e-001
 -8.02460000e-001
 -7.20367000e-001
 -5.52673000e-001
 -4.35791000e-001
 -5.40771000e-001
 -5.95703000e-001
 -7.19757000e-001
 -6.26526000e-001
 -7.13043000e-001
 -4.52423000e-001
 -4.38080000e-001
 -7.59277000e-001
 -8.12378000e-001
 -6.37665000e-001
 -4.43115000e-001
 -4.54407000e-001
 -4.76532000e-001
 -6.57043000e-001
 -6.37360000e-001
 -5.73730000e-001
 -4.89044000e-001
 -6.28662000e-001
 -6.68488000e-001
 -7.17773000e-001
 -5.42908000e-001
 -4.18549000e-001
 -5.37262000e-001
 -7.12585000e-001
 -9.12170000e-001
 -6.83289000e-001
 -4.88892000e-001
 -3.63159000e-001
 -4.50287000e-001
 -5.78461000e-001
 -7.43408000e-001
 -4.73175000e-001
 -3.61786000e-001
 -4.64478000e-001
 -6.31256000e-001
 -8.30688000e-001
 -7.52411000e-001
 -6.34918000e-001
 -4.21448000e-001
 -5.53131000e-001
 -6.90308000e-001
 -6.66504000e-001
 -4.85687000e-001
 -4.15344000e-001
 -3.89862000e-001
 -5.49164000e-001
 -6.48041000e-001
 -5.34515000e-001
 -3.24249000e-001
 -8.48390000e-002
 -3.18146000e-001
 -6.25458000e-001
 -7.85370000e-001
 -6.18591000e-001
 -5.24139000e-001
 -4.63409000e-001
 -5.96161000e-001
 -7.33337000e-001
 -5.69305000e-001
 -3.37677000e-001
 -3.11127000e-001
 -4.18396000e-001
 -5.29175000e-001
 -8.25348000e-001
 -6.56281000e-001
 -4.97742000e-001
 -5.28564000e-001
 -6.07910000e-001
 -6.13251000e-001
 -7.50885000e-001
 -6.19354000e-001
 -4.39301000e-001
 -5.37872000e-001
 -5.76172000e-001
 -6.46515000e-001
 -5.23834000e-001
 -5.05524000e-001
 -4.48303000e-001
 -4.37775000e-001
 -4.85382000e-001
 -5.79529000e-001
 -4.67529000e-001
 -3.37067000e-001
 -4.02832000e-001
 -4.56390000e-001
 -5.35126000e-001
 -4.99268000e-001
 -4.04968000e-001
 -2.47345000e-001
 -3.73077000e-001
 -5.31464000e-001
 -4.77142000e-001
 -3.39050000e-001
 -1.97601000e-001
 4.16560000e-002
 -1.76697000e-001
 -5.43365000e-001
 -4.60663000e-001
 -2.14844000e-001
 -2.73130000e-002
 -2.08435000e-001
 -3.04565000e-001
 -4.02985000e-001
 -3.06854000e-001
 -1.46484000e-001
 -3.96700000e-003
 -2.75421000e-001
 -3.59192000e-001
 -2.17590000e-001
 -1.15662000e-001
 3.44850000e-002
 -1.32904000e-001
 -2.02026000e-001
 -2.98462000e-001
 -4.05880000e-002
 1.54877000e-001
 7.76670000e-002
 -8.74330000e-002
 -1.56250000e-001
 -2.57721000e-001
 -1.10931000e-001
 1.46942000e-001
 -8.28550000e-002
 -3.30353000e-001
 -4.90265000e-001
 -3.15704000e-001
 -1.23901000e-001
 -2.39560000e-002
 -5.05070000e-002
 -1.80206000e-001
 -2.90375000e-001
 -1.44043000e-001
 -2.12100000e-002
 -9.07900000e-002
 -2.84882000e-001
 -4.25568000e-001
 -3.59650000e-001
 -2.43225000e-001
 -8.69800000e-003
 -3.50342000e-001
 -6.69403000e-001
 -6.74438000e-001
 -4.62341000e-001
 -3.72162000e-001
 -3.91083000e-001
 -5.06439000e-001
 -6.80542000e-001
 -5.63202000e-001
 -4.85840000e-001
 -4.04663000e-001
 -5.60760000e-001
 -6.25610000e-001
 -7.51801000e-001
 -7.60651000e-001
 -6.43768000e-001
 -5.83344000e-001
 -8.10547000e-001
 -1.12899800e+000
 -1.00631700e+000
 -8.26416000e-001
 -7.09381000e-001
 -7.03735000e-001
 -8.06885000e-001
 -1.03469800e+000
 -7.95441000e-001
 -6.34766000e-001
 -5.77087000e-001
 -7.37915000e-001
 -8.59070000e-001
 -8.80585000e-001
 -8.24890000e-001
 -6.50024000e-001
 -8.79669000e-001
 -1.04858400e+000
 -1.15219100e+000
 -9.10492000e-001
 -7.55463000e-001
 -6.84814000e-001
 -8.06732000e-001
 -8.67310000e-001
 -1.00021400e+000
 -8.78601000e-001
 -7.06787000e-001
 -7.72400000e-001
 -9.33075000e-001
 -1.08840900e+000
 -1.05636600e+000
 -1.13952600e+000
 -8.79059000e-001
 -1.02005000e+000
 -1.13464400e+000
 -1.00997900e+000
 -8.20770000e-001
 -7.93304000e-001
 -8.32062000e-001
 -8.65936000e-001
 -1.06079100e+000
 -8.41217000e-001
 -6.48193000e-001
 -6.05774000e-001
 -7.89032000e-001
 -9.40247000e-001
 -1.21582000e+000
 -1.18392900e+000
 -8.96912000e-001
 -8.32672000e-001
 -1.05590800e+000
 -1.13555900e+000
 -1.01226800e+000
 -8.48694000e-001
 -6.35986000e-001
 -6.00891000e-001
 -6.68793000e-001
 -9.12933000e-001
 -8.04291000e-001
 -8.17413000e-001
 -7.95593000e-001
 -9.60083000e-001
 -1.08093300e+000
 -1.13815300e+000
 -9.59930000e-001
 -7.59430000e-001
 -1.03134200e+000
 -1.08749400e+000
 -1.15280200e+000
 -9.88312000e-001
 -9.14001000e-001
 -7.55920000e-001
 -6.80695000e-001
 -7.93457000e-001
 -7.86896000e-001
 -7.07703000e-001
 -6.14624000e-001
 -8.19855000e-001
 -8.90350000e-001
 -9.94568000e-001
 -9.53217000e-001
 -9.17664000e-001
 -6.62079000e-001
 -8.24127000e-001
 -1.01089500e+000
 -1.04888900e+000
 -9.39484000e-001
 -7.57904000e-001
 -7.24945000e-001
 -8.27484000e-001
 -9.60083000e-001
 -6.40411000e-001
 -5.45502000e-001
 -3.82538000e-001
 -3.30658000e-001
 -2.91901000e-001
 -2.93427000e-001
 -1.10321000e-001
 3.50494000e-001
 6.02264000e-001
 6.94733000e-001
 1.00555400e+000
 1.66564900e+000
 1.99234000e+000
 2.12387100e+000
 2.17758200e+000
 2.32757600e+000
 2.27157600e+000
 2.61611900e+000
 2.64556900e+000
 2.65213000e+000
 2.64648400e+000
 2.64373800e+000
 2.64816300e+000
 2.65487700e+000
 2.64968900e+000
 2.04589800e+000
 1.46087600e+000
 1.03729200e+000
 8.92792000e-001
 8.45642000e-001
 7.36084000e-001
 5.56335000e-001
 2.48871000e-001
 9.17050000e-002
 1.48468000e-001
 1.79443000e-001
 2.42610000e-002
 -5.64580000e-002
 -1.42517000e-001
 -1.41296000e-001
 -2.54822000e-001
 -3.05023000e-001
 -5.49164000e-001
 -8.21991000e-001
 -9.34143000e-001
 -8.85162000e-001
 -9.63287000e-001
 -1.11511200e+000
 -1.34658800e+000
 -1.71020500e+000
 -1.58462500e+000
 -1.51168800e+000
 -1.43859900e+000
 -1.67373700e+000
 -1.76971400e+000
 -1.78329500e+000
 -1.77475000e+000
 -1.60781900e+000
 -1.51992800e+000
 -1.65039100e+000
 -1.69158900e+000
 -1.41922000e+000
 -1.26495400e+000
 -1.07879600e+000
 -1.15219100e+000
 -1.21597300e+000
 -1.25244100e+000
 -9.86176000e-001
 -7.33185000e-001
 -8.43506000e-001
 -9.29718000e-001
 -9.44824000e-001
 -7.43561000e-001
 -6.22711000e-001
 -3.72467000e-001
 -5.47485000e-001
 -7.70416000e-001
 -8.00629000e-001
 -5.73578000e-001
 -5.20630000e-001
 -5.42450000e-001
 -6.00433000e-001
 -7.52411000e-001
 -6.45599000e-001
 -5.56335000e-001
 -4.77600000e-001
 -5.96008000e-001
 -5.78308000e-001
 -6.89697000e-001
 -5.87769000e-001
 -4.02222000e-001
 -2.86713000e-001
 -5.52368000e-001
 -8.31757000e-001
 -6.08063000e-001
 -4.40979000e-001
 -2.65961000e-001
 -3.42865000e-001
 -4.13666000e-001
 -5.46417000e-001
 -3.81317000e-001
 -4.44336000e-001
 -3.81622000e-001
 -4.43573000e-001
 -4.64172000e-001
 -4.50287000e-001
 -3.78113000e-001
 -1.70746000e-001
 -3.44696000e-001
 -3.96576000e-001
 -5.53436000e-001
 -4.45099000e-001
 -3.76587000e-001
 -2.77557000e-001
 -3.86963000e-001
 -3.22418000e-001
 -4.19617000e-001
 -2.48871000e-001
 -1.41296000e-001
 -2.63977000e-001
 -5.85022000e-001
 -6.63757000e-001
 -5.78308000e-001
 -3.77960000e-001
 -9.35360000e-002
 -2.78473000e-001
 -3.67584000e-001
 -3.64838000e-001
 -2.61993000e-001
 -1.97754000e-001
 -2.38342000e-001
 -2.68707000e-001
 -4.20837000e-001
 -3.53546000e-001
 -2.38647000e-001
 -9.71980000e-002
 -1.88599000e-001
 -2.50702000e-001
 -5.81970000e-001
 -5.53741000e-001
 -3.46375000e-001
 -2.35596000e-001
 -4.29230000e-001
 -5.71136000e-001
 -4.11987000e-001
 -3.33862000e-001
 -2.56348000e-001
 -1.70898000e-001
 -2.02942000e-001
 -4.70734000e-001
 -2.43988000e-001
 -9.91820000e-002
 -1.39923000e-001
 -2.39716000e-001
 -2.11945000e-001
 -2.59705000e-001
 -3.14636000e-001
 -3.09143000e-001
 -3.62244000e-001
 -3.76740000e-001
 -4.32434000e-001
 -1.67694000e-001
 -6.30190000e-002
 -1.05290000e-002
 -1.23901000e-001
 -2.96173000e-001
 -2.70081000e-001
 -1.12152000e-001
 6.75960000e-002
 -4.69970000e-002
 -2.58789000e-001
 -3.65601000e-001
 -3.06854000e-001
 -1.55487000e-001
 8.59070000e-002
 -1.31531000e-001
 -1.90582000e-001
 -1.29700000e-001
 6.66810000e-002
 8.91110000e-002
 1.07574000e-001
 6.95800000e-002
 -1.45721000e-001
 -2.12100000e-002
 1.74561000e-001
 2.20642000e-001
 6.82070000e-002
 -5.02010000e-002
 -1.35956000e-001
 2.86870000e-002
 1.77460000e-001
 2.53448000e-001
 6.86600000e-003
 -8.52970000e-002
 2.22780000e-002
 1.12000000e-001
 2.55585000e-001
 3.07465000e-001
 2.21710000e-001
 -3.70790000e-002
 1.70441000e-001
 3.38745000e-001
 3.11279000e-001
 2.12402000e-001
 8.01090000e-002
 6.72910000e-002
 1.87225000e-001
 4.75922000e-001
 3.49426000e-001
 1.48315000e-001
 4.56240000e-002
 1.61591000e-001
 2.09503000e-001
 3.10364000e-001
 3.84979000e-001
 3.72009000e-001
 3.72772000e-001
 4.73785000e-001
 6.27289000e-001
 4.87061000e-001
 2.91595000e-001
 2.19879000e-001
 2.95410000e-001
 4.41895000e-001
 6.14777000e-001
 3.78113000e-001
 2.72064000e-001
 3.16315000e-001
 4.61578000e-001
 5.72357000e-001
 5.97687000e-001
 4.62036000e-001
 2.97699000e-001
 3.99933000e-001
 4.59442000e-001
 4.91791000e-001
 4.36249000e-001
 3.59344000e-001
 3.46069000e-001
 4.96521000e-001
 6.78558000e-001
 6.45905000e-001
 4.84161000e-001
 4.76532000e-001
 5.99213000e-001
 7.46918000e-001
 8.11920000e-001
 6.92596000e-001
 6.57654000e-001
 4.82941000e-001
 6.22864000e-001
 7.95593000e-001
 8.01086000e-001
 7.01141000e-001
 6.52313000e-001
 5.97839000e-001
 6.20575000e-001
 8.16345000e-001
 7.45544000e-001
 6.69861000e-001
 6.41174000e-001
 7.54089000e-001
 6.93665000e-001
 7.83234000e-001
 7.95898000e-001
 6.89087000e-001
 6.64062000e-001
 7.92389000e-001
 9.15680000e-001
 8.24890000e-001
 7.44324000e-001
 5.72052000e-001
 7.70874000e-001
 7.02667000e-001
 8.34656000e-001
 6.35376000e-001
 4.78363000e-001
 6.30493000e-001
 7.90253000e-001
 9.15985000e-001
 8.02765000e-001
 7.83386000e-001
 6.35376000e-001
 7.92694000e-001
 8.71887000e-001
 8.51746000e-001
 7.35321000e-001
 6.12946000e-001
 4.73633000e-001
 5.33600000e-001
 7.88574000e-001
 6.03333000e-001
 3.85590000e-001
 2.23694000e-001
 3.94745000e-001
 4.99115000e-001
 5.97076000e-001
 4.08020000e-001
 3.00751000e-001
 2.66724000e-001
 4.04205000e-001
 4.32587000e-001
 2.59094000e-001
 1.31531000e-001
 9.70460000e-002
 7.81250000e-002
 1.06659000e-001
 2.69012000e-001
 9.50620000e-002
 -8.27030000e-002
 -1.52588000e-001
 6.98850000e-002
 1.05743000e-001
 5.81360000e-002
 -8.42290000e-002
 -2.50092000e-001
 -1.46942000e-001
 -5.31010000e-002
 4.69970000e-002
 -1.19629000e-001
 -1.71967000e-001
 -3.59344000e-001
 -3.66058000e-001
 -2.91443000e-001
 -3.40118000e-001
 -5.99823000e-001
 -6.98547000e-001
 -5.09949000e-001
 -4.16412000e-001
 -4.28162000e-001
 -5.02472000e-001
 -6.39648000e-001
 -8.87909000e-001
 -6.62842000e-001
 -4.91638000e-001
 -4.69208000e-001
 -5.96161000e-001
 -5.94025000e-001
 -5.99976000e-001
 -6.13556000e-001
 -5.87463000e-001
 -7.22961000e-001
 -8.54950000e-001
 -9.36737000e-001
 -6.63300000e-001
 -5.45197000e-001
 -5.10559000e-001
 -6.53534000e-001
 -8.42743000e-001
 -8.55255000e-001
 -5.17120000e-001
 -3.95355000e-001
 -5.08575000e-001
 -6.32172000e-001
 -7.33795000e-001
 -7.43713000e-001
 -7.07397000e-001
 -4.39911000e-001
 -5.62897000e-001
 -7.36847000e-001
 -8.34351000e-001
 -7.92389000e-001
 -7.73315000e-001
 -6.11877000e-001
 -6.34308000e-001
 -8.49457000e-001
 -6.89392000e-001
 -5.41229000e-001
 -6.56128000e-001
 -8.39539000e-001
 -7.69043000e-001
 -8.14667000e-001
 -7.33948000e-001
 -5.51147000e-001
 -4.77142000e-001
 -7.31812000e-001
 -9.45435000e-001
 -9.45892000e-001
 -7.93915000e-001
 -7.23267000e-001
 -7.37000000e-001
 -6.37817000e-001
 -8.51440000e-001
 -6.80389000e-001
 -4.76379000e-001
 -4.62646000e-001
 -6.21033000e-001
 -7.68280000e-001
 -8.40607000e-001
 -7.38525000e-001
 -5.47485000e-001
 -7.52563000e-001
 -9.44672000e-001
 -9.29413000e-001
 -7.29218000e-001
 -6.51245000e-001
 -5.92804000e-001
 -4.69971000e-001
 -6.32019000e-001
 -7.85065000e-001
 -5.43518000e-001
 -4.24652000e-001
 -5.39703000e-001
 -7.14111000e-001
 -8.03986000e-001
 -7.40204000e-001
 -6.35223000e-001
 -4.76837000e-001
 -6.62384000e-001
 -8.12225000e-001
 -8.31757000e-001
 -6.37817000e-001
 -5.62744000e-001
 -6.96411000e-001
 -7.63702000e-001
 -8.35419000e-001
 -7.26013000e-001
 -5.23071000e-001
 -4.60052000e-001
 -5.60760000e-001
 -6.00281000e-001
 -5.95093000e-001
 -5.58167000e-001
 -5.34363000e-001
 -4.84772000e-001
 -7.48749000e-001
 -8.17719000e-001
 -6.47888000e-001
 -4.62799000e-001
 -3.88947000e-001
 -4.85992000e-001
 -7.54395000e-001
 -1.03195200e+000
 -6.77795000e-001
 -3.85284000e-001
 -3.82538000e-001
 -5.87006000e-001
 -7.00531000e-001
 -7.21436000e-001
 -5.99060000e-001
 -3.34778000e-001
 -6.29272000e-001
 -7.03888000e-001
 -8.06427000e-001
 -6.75812000e-001
 -5.10864000e-001
 -3.37524000e-001
 -4.29535000e-001
 -5.82733000e-001
 -6.19202000e-001
 -4.73785000e-001
 -3.05481000e-001
 -5.88379000e-001
 -7.80182000e-001
 -8.23669000e-001
 -7.20367000e-001
 -5.78308000e-001
 -4.25110000e-001
 -5.91125000e-001
 -7.41119000e-001
 -5.94177000e-001
 -3.78571000e-001
 -3.48358000e-001
 -4.01611000e-001
 -5.16663000e-001
 -7.67212000e-001
 -6.93359000e-001
 -5.48248000e-001
 -5.00183000e-001
 -6.00586000e-001
 -6.17218000e-001
 -6.53687000e-001
 -6.92749000e-001
 -4.68597000e-001
 -3.74451000e-001
 -6.24237000e-001
 -8.03223000e-001
 -6.68030000e-001
 -4.95758000e-001
 -4.37927000e-001
 -4.78210000e-001
 -5.56030000e-001
 -7.41730000e-001
 -6.11572000e-001
 -5.00031000e-001
 -5.03998000e-001
 -5.27496000e-001
 -5.97687000e-001
 -6.04095000e-001
 -6.01349000e-001
 -3.85284000e-001
 -6.05927000e-001
 -8.45337000e-001
 -8.42133000e-001
 -5.69763000e-001
 -5.39703000e-001
 -5.06134000e-001
 -5.57404000e-001
 -6.73981000e-001
 -5.87006000e-001
 -4.57764000e-001
 -4.81415000e-001
 -6.50177000e-001
 -7.36084000e-001
 -8.02765000e-001
 -6.96106000e-001
 -6.05927000e-001
 -3.54309000e-001
 -5.83191000e-001
 -6.97784000e-001
 -6.84357000e-001
 -5.40771000e-001
 -4.60205000e-001
 -4.89502000e-001
 -6.28357000e-001
 -8.55255000e-001
 -5.93567000e-001
 -4.13666000e-001
 -4.00543000e-001
 -5.94025000e-001
 -7.01599000e-001
 -6.97327000e-001
 -6.76117000e-001
 -5.92041000e-001
 -6.10809000e-001
 -7.39899000e-001
 -7.99561000e-001
 -5.73730000e-001
 -4.46625000e-001
 -4.11072000e-001
 -4.96368000e-001
 -5.59387000e-001
 -6.88171000e-001
 -4.31824000e-001
 -2.58331000e-001
 -3.28064000e-001
 -4.14124000e-001
 -6.24542000e-001
 -6.45599000e-001
 -5.23224000e-001
 -2.88391000e-001
 -4.59595000e-001
 -4.92706000e-001
 -4.93164000e-001
 -1.90277000e-001
 -1.52130000e-001
 -1.41449000e-001
 -2.56195000e-001
 -3.74908000e-001
 -3.65295000e-001
 -2.45819000e-001
 -3.87570000e-002
 -1.84631000e-001
 -3.16162000e-001
 -3.65906000e-001
 -1.50909000e-001
 -1.15970000e-002
 7.26320000e-002
 -2.70386000e-001
 -4.19464000e-001
 -3.00598000e-001
 -1.72272000e-001
 -4.86760000e-002
 -1.02386000e-001
 -1.71661000e-001
 -4.27246000e-001
 -1.89667000e-001
 4.36400000e-002
 9.85720000e-002
 -2.99070000e-002
 -8.98740000e-002
 -1.73187000e-001
 -2.86870000e-002
 1.46790000e-001
 -3.75370000e-002
 -2.61078000e-001
 -3.98102000e-001
 -3.17078000e-001
 -3.13263000e-001
 -1.33362000e-001
 -1.42365000e-001
 -2.05994000e-001
 -2.49481000e-001
 -5.49300000e-003
 8.97220000e-002
 -6.05770000e-002
 -2.29187000e-001
 -4.07715000e-001
 -4.46472000e-001
 -3.21503000e-001
 -3.90620000e-002
 -2.34833000e-001
 -4.41589000e-001
 -4.41589000e-001
 -3.63770000e-001
 -3.35846000e-001
 -3.03497000e-001
 -3.91846000e-001
 -6.15692000e-001
 -4.49524000e-001
 -3.89557000e-001
 -3.14789000e-001
 -3.37067000e-001
 -4.71649000e-001
 -7.70874000e-001
 -7.43103000e-001
 -6.25458000e-001
 -5.40161000e-001
 -7.68890000e-001
 -8.31146000e-001
 -6.95801000e-001
 -6.03485000e-001
 -5.76477000e-001
 -7.23114000e-001
 -8.03986000e-001
 -9.44366000e-001
 -7.35626000e-001
 -6.20728000e-001
 -6.26678000e-001
 -7.82318000e-001
 -7.76825000e-001
 -8.21075000e-001
 -8.36945000e-001
 -6.94427000e-001
 -7.70264000e-001
 -9.17816000e-001
 -1.02615400e+000
 -8.78906000e-001
 -7.22198000e-001
 -6.62384000e-001
 -8.07037000e-001
 -8.57697000e-001
 -9.03625000e-001
 -7.76215000e-001
 -7.42187000e-001
 -8.24432000e-001
 -9.54437000e-001
 -1.07452400e+000
 -9.36432000e-001
 -9.25903000e-001
 -7.94220000e-001
 -9.25598000e-001
 -1.04812600e+000
 -1.11267100e+000
 -8.60443000e-001
 -7.26013000e-001
 -7.29523000e-001
 -8.14056000e-001
 -1.03042600e+000
 -9.67712000e-001
 -9.15833000e-001
 -8.88367000e-001
 -9.79004000e-001
 -8.87299000e-001
 -9.56573000e-001
 -1.02432300e+000
 -8.79364000e-001
 -8.05969000e-001
 -1.04187000e+000
 -1.20315600e+000
 -9.76410000e-001
 -7.94983000e-001
 -6.89850000e-001
 -8.33740000e-001
 -9.72900000e-001
 -1.15097000e+000
 -8.72498000e-001
 -6.38885000e-001
 -6.68793000e-001
 -8.63190000e-001
 -8.96301000e-001
 -9.49554000e-001
 -9.03168000e-001
 -6.94733000e-001
 -8.54034000e-001
 -1.05667100e+000
 -1.25351000e+000
 -9.75494000e-001
 -7.39288000e-001
 -7.17926000e-001
 -7.82471000e-001
 -9.36584000e-001
 -1.01776100e+000
 -8.22754000e-001
 -6.58875000e-001
 -7.06329000e-001
 -8.17719000e-001
 -9.05914000e-001
 -8.57086000e-001
 -7.97577000e-001
 -5.90363000e-001
 -7.81097000e-001
 -8.36182000e-001
 -8.12683000e-001
 -6.93665000e-001
 -7.44324000e-001
 -7.67365000e-001
 -8.05206000e-001
 -1.08596800e+000
 -9.01489000e-001
 -7.02209000e-001
 -6.50177000e-001
 -9.00269000e-001
 -9.49860000e-001
 -8.83942000e-001
 -6.34003000e-001
 -2.87933000e-001
 -8.52970000e-002
 -7.73620000e-002
 -3.28060000e-002
 2.90375000e-001
 5.30548000e-001
 9.48486000e-001
 1.28280600e+000
 1.54983500e+000
 1.67266800e+000
 2.06146200e+000
 2.32452400e+000
 2.44094800e+000
 2.44323700e+000
 2.47375500e+000
 2.59033200e+000
 2.65396100e+000
 2.64831500e+000
 2.64801000e+000
 2.64053300e+000
 2.63992300e+000
 2.64709500e+000
 2.31582600e+000
 1.77917500e+000
 1.19262700e+000
 6.69250000e-001
 4.57001000e-001
 4.52271000e-001
 3.93524000e-001
 8.68230000e-002
 -1.86768000e-001
 -3.19061000e-001
 -2.75269000e-001
 -2.80914000e-001
 -2.26593000e-001
 -6.08063000e-001
 -8.72192000e-001
 -9.69543000e-001
 -9.41315000e-001
 -8.21381000e-001
 -9.61304000e-001
 -1.16210900e+000
 -1.60690300e+000
 -1.66458100e+000
 -1.69204700e+000
 -1.66153000e+000
 -1.82754500e+000
 -1.87439000e+000
 -1.99813800e+000
 -1.92825300e+000
 -1.77581800e+000
 -1.81350700e+000
 -1.95312500e+000
 -2.12127700e+000
 -2.02926600e+000
 -1.82220500e+000
 -1.60369900e+000
 -1.59027100e+000
 -1.53945900e+000
 -1.66656500e+000
 -1.54830900e+000
 -1.39251700e+000
 -1.38763400e+000
 -1.41861000e+000
 -1.38992300e+000
 -1.15829500e+000
 -9.86328000e-001
 -6.82068000e-001
 -9.61761000e-001
 -1.02523800e+000
 -9.93652000e-001
 -7.84760000e-001
 -7.45544000e-001
 -7.47528000e-001
 -7.35931000e-001
 -7.79266000e-001
 -7.28455000e-001
 -5.53589000e-001
 -5.24445000e-001
 -6.28662000e-001
 -5.97687000e-001
 -6.19659000e-001
 -7.26471000e-001
 -6.51398000e-001
 -4.64935000e-001
 -7.26166000e-001
 -9.42230000e-001
 -7.86591000e-001
 -5.63507000e-001
 -5.47943000e-001
 -5.69611000e-001
 -6.86035000e-001
 -7.97882000e-001
 -6.48346000e-001
 -6.13403000e-001
 -5.46417000e-001
 -6.17371000e-001
 -6.78558000e-001
 -6.93665000e-001
 -6.17676000e-001
 -4.48151000e-001
 -4.91943000e-001
 -7.19147000e-001
 -8.07953000e-001
 -6.20575000e-001
 -4.94385000e-001
 -4.45404000e-001
 -4.62952000e-001
 -4.56238000e-001
 -5.85632000e-001
 -4.63562000e-001
 -4.52423000e-001
 -5.18799000e-001
 -6.46362000e-001
 -7.48138000e-001
 -6.78864000e-001
 -6.59332000e-001
 -4.02069000e-001
 -5.58472000e-001
 -6.65588000e-001
 -7.99255000e-001
 -5.76172000e-001
 -4.19464000e-001
 -4.47998000e-001
 -5.69458000e-001
 -7.21588000e-001
 -5.65796000e-001
 -1.31836000e-001
 -9.01790000e-002
 -3.26996000e-001
 -4.45404000e-001
 -6.09283000e-001
 -5.46722000e-001
 -5.14679000e-001
 -4.65393000e-001
 -6.69708000e-001
 -7.43713000e-001
 -5.56183000e-001
 -3.99017000e-001
 -2.65656000e-001
 -2.46582000e-001
 -3.78876000e-001
 -5.61523000e-001
 -4.08173000e-001
 -2.13623000e-001
 -2.04163000e-001
 -4.92706000e-001
 -5.68695000e-001
 -5.79529000e-001
 -5.01099000e-001
 -4.22974000e-001
 -4.89807000e-001
 -5.58472000e-001
 -6.68793000e-001
 -4.24805000e-001
 -2.82593000e-001
 -2.13165000e-001
 -3.02734000e-001
 -3.90167000e-001
 -4.94080000e-001
 -2.40173000e-001
 -6.69860000e-002
 -1.60065000e-001
 -2.70996000e-001
 -3.47290000e-001
 -3.08075000e-001
 -2.35138000e-001
 -2.82290000e-002
 -2.76337000e-001
 -5.44586000e-001
 -5.76782000e-001
 -3.03040000e-001
 -3.06091000e-001
 -2.16217000e-001
 -2.30255000e-001
 -4.46320000e-001
 -2.05994000e-001
 -4.73000000e-003
 -2.77710000e-002
 -2.38342000e-001
 -2.79541000e-001
 -4.19312000e-001
 -3.36456000e-001
 -1.11542000e-001
 1.67800000e-003
 -1.62506000e-001
 -3.40118000e-001
 -1.96533000e-001
 -9.76560000e-002
 -6.86600000e-003
 -4.68440000e-002
 -1.11237000e-001
 -3.10669000e-001
 -1.39465000e-001
 -4.88280000e-002
 -4.33350000e-002
 -1.58081000e-001
 -2.23083000e-001
 -2.48108000e-001
 -1.37024000e-001
 1.59912000e-001
 -3.51000000e-003
 -1.16730000e-001
 -2.15759000e-001
 -9.07900000e-002
 3.50950000e-002
 1.24512000e-001
 5.90520000e-002
 -8.08720000e-002
 -1.25275000e-001
 9.73510000e-002
 2.21405000e-001
 7.46150000e-002
 -8.66700000e-002
 -1.48468000e-001
 -8.10240000e-002
 2.34990000e-002
 1.97144000e-001
 -1.69370000e-002
 -4.57760000e-002
 2.77710000e-002
 3.00293000e-001
 3.40271000e-001
 2.79388000e-001
 1.81885000e-001
 -8.56020000e-002
 1.53198000e-001
 3.90320000e-001
 4.82788000e-001
 4.28467000e-001
 2.12097000e-001
 -6.68330000e-002
 4.07410000e-002
 2.34985000e-001
 3.82996000e-001
 3.19977000e-001
 1.70746000e-001
 3.84979000e-001
 4.80042000e-001
 4.99725000e-001
 3.59039000e-001
 3.12958000e-001
 2.26135000e-001
 4.52118000e-001
 5.89905000e-001
 4.73175000e-001
 3.12805000e-001
 2.78625000e-001
 3.20740000e-001
 3.53851000e-001
 5.61829000e-001
 4.59900000e-001
 2.85797000e-001
 2.30255000e-001
 4.16412000e-001
 5.07202000e-001
 6.46973000e-001
 6.49567000e-001
 4.59137000e-001
 4.13818000e-001
 6.56433000e-001
 8.34351000e-001
 7.27692000e-001
 5.43365000e-001
 2.84424000e-001
 3.70178000e-001
 5.29633000e-001
 7.72858000e-001
 5.94177000e-001
 3.99628000e-001
 4.91943000e-001
 7.30438000e-001
 7.76367000e-001
 7.06329000e-001
 6.68640000e-001
 4.13666000e-001
 5.19562000e-001
 5.80597000e-001
 6.65741000e-001
 5.71136000e-001
 5.44739000e-001
 4.24194000e-001
 5.34058000e-001
 6.50787000e-001
 6.49567000e-001
 5.43518000e-001
 3.27911000e-001
 3.15399000e-001
 3.95203000e-001
 5.13916000e-001
 3.69415000e-001
 2.83356000e-001
 1.26343000e-001
 3.38593000e-001
 4.83093000e-001
 4.51965000e-001
 2.88696000e-001
 2.11182000e-001
 1.72424000e-001
 1.57928000e-001
 3.73993000e-001
 2.96783000e-001
 4.58000000e-004
 -3.78420000e-002
 1.63727000e-001
 2.03400000e-001
 2.54974000e-001
 1.00098000e-001
 -2.04620000e-001
 -1.73492000e-001
 -1.19020000e-002
 9.67410000e-002
 -1.32751000e-001
 -3.28217000e-001
 -4.71802000e-001
 -3.44086000e-001
 -1.41754000e-001
 -9.44520000e-002
 -3.36609000e-001
 -5.32837000e-001
 -4.15497000e-001
 -2.20490000e-001
 -2.05688000e-001
 -3.64685000e-001
 -4.90875000e-001
 -6.64062000e-001
 -4.96216000e-001
 -3.59955000e-001
 -2.93121000e-001
 -3.20129000e-001
 -4.81110000e-001
 -5.85175000e-001
 -5.73425000e-001
 -3.55225000e-001
 -3.87268000e-001
 -5.07050000e-001
 -7.14111000e-001
 -6.02570000e-001
 -4.28162000e-001
 -4.05426000e-001
 -5.43518000e-001
 -5.28259000e-001
 -6.40717000e-001
 -4.89044000e-001
 -4.17938000e-001
 -4.79736000e-001
 -5.98907000e-001
 -7.82928000e-001
 -7.33490000e-001
 -5.89447000e-001
 -4.32129000e-001
 -6.23016000e-001
 -7.65533000e-001
 -7.66449000e-001
 -5.38330000e-001
 -4.94385000e-001
 -4.59900000e-001
 -5.46570000e-001
 -7.24335000e-001
 -7.14111000e-001
 -5.70374000e-001
 -4.36249000e-001
 -5.34363000e-001
 -6.38580000e-001
 -8.40149000e-001
 -8.13904000e-001
 -6.79932000e-001
 -5.21393000e-001
 -7.43103000e-001
 -8.93555000e-001
 -7.28607000e-001
 -5.57251000e-001
 -4.18701000e-001
 -4.93317000e-001
 -5.46570000e-001
 -7.83386000e-001
 -5.15747000e-001
 -5.66559000e-001
 -5.63354000e-001
 -6.39496000e-001
 -7.53326000e-001
 -8.33435000e-001
 -7.77130000e-001
 -5.21698000e-001
 -6.28662000e-001
 -8.81500000e-001
 -8.83026000e-001
 -6.93512000e-001
 -6.62842000e-001
 -5.30853000e-001
 -5.83038000e-001
 -7.46613000e-001
 -9.01184000e-001
 -6.73981000e-001
 -5.15137000e-001
 -6.04706000e-001
 -7.09076000e-001
 -8.22296000e-001
 -8.11005000e-001
 -7.30438000e-001
 -4.95300000e-001
 -6.52618000e-001
 -8.54950000e-001
 -9.21783000e-001
 -7.34253000e-001
 -7.13043000e-001
 -6.73828000e-001
 -7.40509000e-001
 -8.14362000e-001
 -6.49414000e-001
 -4.48914000e-001
 -3.59955000e-001
 -6.35529000e-001
 -6.65894000e-001
 -7.90710000e-001
 -7.22656000e-001
 -5.44739000e-001
 -4.85382000e-001
 -8.68835000e-001
 -1.07299800e+000
 -8.99811000e-001
 -6.29578000e-001
 -4.46014000e-001
 -5.37415000e-001
 -6.21643000e-001
 -8.73413000e-001
 -7.39594000e-001
 -6.97479000e-001
 -6.48346000e-001
 -7.59125000e-001
 -8.12225000e-001
 -7.97577000e-001
 -8.82263000e-001
 -6.56281000e-001
 -7.21436000e-001
 -7.00684000e-001
 -7.78046000e-001
 -6.88477000e-001
 -6.95648000e-001
 -7.02057000e-001
 -7.76520000e-001
 -8.37097000e-001
 -9.17816000e-001
 -7.27692000e-001
 -5.65338000e-001
 -6.74133000e-001
 -7.94373000e-001
 -9.29108000e-001
 -8.94470000e-001
 -8.35266000e-001
 -5.53131000e-001
 -7.60651000e-001
 -9.20563000e-001
 -9.19189000e-001
 -8.12683000e-001
 -7.34558000e-001
 -7.20215000e-001
 -8.07800000e-001
 -9.86328000e-001
 -7.89185000e-001
 -6.38885000e-001
 -5.23987000e-001
 -7.08771000e-001
 -8.30841000e-001
 -8.92944000e-001
 -8.17871000e-001
 -6.95953000e-001
 -6.46820000e-001
 -8.67310000e-001
 -1.02203400e+000
 -8.69598000e-001
 -6.66656000e-001
 -5.24292000e-001
 -5.81207000e-001
 -7.14569000e-001
 -9.15985000e-001
 -6.98395000e-001
 -6.02417000e-001
 -6.32477000e-001
 -7.37915000e-001
 -8.74329000e-001
 -9.55048000e-001
 -8.89893000e-001
 -7.19452000e-001
 -7.76062000e-001
 -8.28705000e-001
 -8.70819000e-001
 -6.50787000e-001
 -6.15234000e-001
 -5.27496000e-001
 -6.70166000e-001
 -8.87451000e-001
 -8.32520000e-001
 -6.05164000e-001
 -5.20935000e-001
 -6.33698000e-001
 -8.07648000e-001
 -9.68781000e-001
 -7.80945000e-001
 -7.22198000e-001
 -4.73175000e-001
 -7.41119000e-001
 -8.63190000e-001
 -8.21838000e-001
 -7.16400000e-001
 -6.76575000e-001
 -5.88379000e-001
 -7.17773000e-001
 -1.02935800e+000
 -7.22656000e-001
 -6.16455000e-001
 -5.86548000e-001
 -8.20770000e-001
 -8.31146000e-001
 -8.24890000e-001
 -7.48138000e-001
 -5.40619000e-001
 -5.96771000e-001
 -7.95746000e-001
 -8.44116000e-001
 -6.95953000e-001
 -6.23932000e-001
 -5.22766000e-001
 -6.49719000e-001
 -9.40857000e-001
 -1.21505700e+000
 -8.45184000e-001
 -6.20728000e-001
 -6.32172000e-001
 -7.66602000e-001
 -8.33588000e-001
 -8.03833000e-001
 -7.22809000e-001
 -5.05981000e-001
 -7.71942000e-001
 -8.76770000e-001
 -9.42688000e-001
 -8.45184000e-001
 -7.72552000e-001
 -6.52771000e-001
 -6.11725000e-001
 -7.50122000e-001
 -7.06024000e-001
 -4.76837000e-001
 -3.17383000e-001
 -4.74701000e-001
 -5.97382000e-001
 -7.38068000e-001
 -6.41022000e-001
 -5.24139000e-001
 -3.53546000e-001
 -5.07355000e-001
 -5.97229000e-001
 -5.55725000e-001
 -4.31824000e-001
 -3.26996000e-001
 -2.87018000e-001
 -3.77350000e-001
 -6.17371000e-001
 -4.38538000e-001
 -3.40729000e-001
 -3.40881000e-001
 -4.13513000e-001
 -3.56750000e-001
 -3.93829000e-001
 -4.35486000e-001
 -2.30103000e-001
 -2.85492000e-001
 -4.62189000e-001
 -5.56641000e-001
 -3.88489000e-001
 -3.46069000e-001
 -2.55432000e-001
 -2.63672000e-001
 -2.73590000e-001
 -4.09546000e-001
 -3.06396000e-001
 -1.98822000e-001
 -1.25275000e-001
 -2.03552000e-001
 -3.11737000e-001
 -3.67126000e-001
 -3.91235000e-001
 -8.68230000e-002
 -2.14844000e-001
 -3.39050000e-001
 -3.50647000e-001
 -2.01874000e-001
 -1.24359000e-001
 -2.39716000e-001
 -4.09088000e-001
 -4.75616000e-001
 -3.64075000e-001
 -3.53851000e-001
 -3.00598000e-001
 -3.63464000e-001
 -5.18036000e-001
 -6.86035000e-001
 -5.73273000e-001
 -4.21906000e-001
 -2.69623000e-001
 -5.56488000e-001
 -6.40717000e-001
 -4.73480000e-001
 -3.40271000e-001
 -3.45917000e-001
 -3.44849000e-001
 -4.47998000e-001
 -7.03125000e-001
 -6.56281000e-001
 -6.00128000e-001
 -4.36249000e-001
 -5.97382000e-001
 -6.99158000e-001
 -7.53326000e-001
 -7.68280000e-001
 -5.49316000e-001
 -5.84869000e-001
 -8.96149000e-001
 -9.94720000e-001
 -7.53326000e-001
 -6.66656000e-001
 -7.02972000e-001
 -8.25043000e-001
 -9.51996000e-001
 -1.11755400e+000
 -8.86383000e-001
 -6.79779000e-001
 -7.05719000e-001
 -8.56476000e-001
 -9.68475000e-001
 -9.86633000e-001
 -9.49860000e-001
 -7.56073000e-001
 -9.21631000e-001
 -9.73358000e-001
 -1.04095500e+000
 -9.52606000e-001
 -8.65173000e-001
 -7.53021000e-001
 -8.37097000e-001
 -1.01181000e+000
 -9.84802000e-001
 -8.36945000e-001
 -6.44379000e-001
 -8.42896000e-001
 -9.77020000e-001
 -1.03515600e+000
 -9.80377000e-001
 -8.94318000e-001
 -7.77740000e-001
 -9.69849000e-001
 -1.13937400e+000
 -1.05041500e+000
 -8.59833000e-001
 -6.77948000e-001
 -7.53632000e-001
 -9.37347000e-001
 -1.18713400e+000
 -9.37805000e-001
 -7.73621000e-001
 -7.92084000e-001
 -8.74634000e-001
 -7.74078000e-001
 -8.75702000e-001
 -8.69446000e-001
 -6.82678000e-001
 -7.00836000e-001
 -9.36432000e-001
 -1.02478000e+000
 -7.78503000e-001
 -7.64923000e-001
 -6.60095000e-001
 -6.68030000e-001
 -7.79877000e-001
 -9.35974000e-001
 -6.45599000e-001
 -5.01404000e-001
 -6.42700000e-001
 -7.46460000e-001
 -9.00116000e-001
 -8.52051000e-001
 -9.01031000e-001
 -7.14722000e-001
 -8.52509000e-001
 -8.72955000e-001
 -9.17358000e-001
 -8.25958000e-001
 -7.16095000e-001
 -6.47430000e-001
 -6.22253000e-001
 -7.91473000e-001
 -7.42035000e-001
 -5.66101000e-001
 -5.43365000e-001
 -7.19910000e-001
 -8.06122000e-001
 -8.24738000e-001
 -7.38373000e-001
 -6.01196000e-001
 -5.25360000e-001
 -6.20575000e-001
 -8.47931000e-001
 -7.19604000e-001
 -6.85730000e-001
 -5.52673000e-001
 -5.99213000e-001
 -6.39191000e-001
 -8.07953000e-001
 -7.08771000e-001
 -6.95038000e-001
 -5.83496000e-001
 -5.81360000e-001
 -6.74591000e-001
 -7.46613000e-001
 -6.88934000e-001
 -3.74298000e-001
 -4.11072000e-001
 -3.68805000e-001
 -2.78931000e-001
 5.41690000e-002
 2.40326000e-001
 5.04608000e-001
 6.98853000e-001
 9.37500000e-001
 1.22879000e+000
 1.83151200e+000
 2.27310200e+000
 2.36343400e+000
 2.41897600e+000
 2.41409300e+000
 2.62313800e+000
 2.64511100e+000
 2.64679000e+000
 2.64267000e+000
 2.64312700e+000
 2.64999400e+000
 2.63855000e+000
 2.64709500e+000
 2.64877300e+000
 2.35076900e+000
 1.70455900e+000
 1.30462600e+000
 9.39331000e-001
 7.37000000e-001
 3.23639000e-001
 2.21405000e-001
 1.40380000e-002
 -6.28660000e-002
 -1.57776000e-001
 -1.30920000e-001
 -4.20074000e-001
 -6.30646000e-001
 -5.45502000e-001
 -5.87616000e-001
 -7.68280000e-001
 -8.73566000e-001
 -9.34143000e-001
 -1.14425700e+000
 -1.07498200e+000
 -1.22390700e+000
 -1.36535600e+000
 -1.61239600e+000
 -1.69952400e+000
 -1.79000900e+000
 -1.78237900e+000
 -1.64550800e+000
 -1.86889600e+000
 -1.91848800e+000
 -1.97814900e+000
 -1.85424800e+000
 -1.62902800e+000
 -1.56692500e+000
 -1.59713700e+000
 -1.67877200e+000
 -1.62307700e+000
 -1.29928600e+000
 -1.15829500e+000
 -1.30111700e+000
 -1.40090900e+000
 -1.44729600e+000
 -1.21704100e+000
 -1.00189200e+000
 -6.98090000e-001
 -8.30688000e-001
 -9.12628000e-001
 -7.42950000e-001
 -6.18591000e-001
 -4.93469000e-001
 -5.56488000e-001
 -6.99310000e-001
 -8.41522000e-001
 -6.56891000e-001
 -5.17883000e-001
 -4.54712000e-001
 -5.91431000e-001
 -5.64728000e-001
 -6.23779000e-001
 -6.80084000e-001
 -4.94843000e-001
 -5.16357000e-001
 -6.26984000e-001
 -8.49609000e-001
 -6.69403000e-001
 -5.19562000e-001
 -4.13361000e-001
 -4.76379000e-001
 -4.50592000e-001
 -6.31866000e-001
 -4.10767000e-001
 -3.35999000e-001
 -3.87573000e-001
 -6.53381000e-001
 -7.99561000e-001
 -6.87408000e-001
 -5.06134000e-001
 -2.63824000e-001
 -3.46375000e-001
 -5.01862000e-001
 -6.02570000e-001
 -4.04510000e-001
 -2.57721000e-001
 -2.11029000e-001
 -3.35083000e-001
 -4.99420000e-001
 -5.03235000e-001
 -3.48663000e-001
 -3.09448000e-001
 -4.29687000e-001
 -4.40674000e-001
 -5.18036000e-001
 -4.54865000e-001
 -3.61633000e-001
 -3.03955000e-001
 -4.43268000e-001
 -5.76782000e-001
 -5.50842000e-001
 -3.71552000e-001
 -1.75781000e-001
 -3.10516000e-001
 -3.30658000e-001
 -4.69513000e-001
 -2.59552000e-001
 -1.12152000e-001
 -9.97920000e-002
 -3.77350000e-001
 -4.17480000e-001
 -4.94080000e-001
 -4.59747000e-001
 -3.12347000e-001
 -3.01971000e-001
 -4.32587000e-001
 -6.48041000e-001
 -4.63715000e-001
 -3.49121000e-001
 -2.73437000e-001
 -2.71759000e-001
 -4.26483000e-001
 -5.48248000e-001
 -2.92969000e-001
 -1.10626000e-001
 -1.50299000e-001
 -2.37732000e-001
 -4.30298000e-001
 -5.96313000e-001
 -5.11169000e-001
 -2.12708000e-001
 -3.66669000e-001
 -4.76990000e-001
 -4.52423000e-001
 -3.91693000e-001
 -3.71246000e-001
 -3.17841000e-001
 -3.25928000e-001
 -4.92249000e-001
 -3.91693000e-001
 -1.25275000e-001
 -7.82780000e-002
 -2.78015000e-001
 -4.63715000e-001
 -7.44934000e-001
 -6.23169000e-001
 -4.76685000e-001
 -3.50494000e-001
 -4.47845000e-001
 -4.89502000e-001
 -4.61273000e-001
 -2.93732000e-001
 -1.66473000e-001
 -2.45667000e-001
 -2.84882000e-001
 -4.95758000e-001
 -3.44696000e-001
 -1.45111000e-001
 -1.43433000e-001
 -2.56653000e-001
 -3.37524000e-001
 -3.64380000e-001
 -2.77710000e-001
 -1.59912000e-001
 -3.05176000e-001
 -4.49371000e-001
 -4.90265000e-001
 -4.14886000e-001
 -2.85645000e-001
 -6.14930000e-002
 -1.67084000e-001
 -3.35236000e-001
 -3.93066000e-001
 -1.49689000e-001
 3.31120000e-002
 -4.07410000e-002
 -1.01013000e-001
 -2.91138000e-001
 -2.67792000e-001
 -1.77307000e-001
 7.84300000e-002
 -1.77765000e-001
 -3.30658000e-001
 -3.35236000e-001
 -2.09045000e-001
 -1.19781000e-001
 -1.16425000e-001
 -1.83258000e-001
 -4.07410000e-001
 -3.02277000e-001
 -3.03650000e-002
 8.07190000e-002
 -9.99450000e-002
 -2.20032000e-001
 -2.41089000e-001
 -9.81140000e-002
 -1.37300000e-003
 2.59400000e-002
 -8.66700000e-002
 -1.69525000e-001
 -2.09050000e-002
 6.22560000e-002
 1.63422000e-001
 1.23901000e-001
 1.56250000e-001
 3.79940000e-002
 1.58539000e-001
 2.31781000e-001
 1.58539000e-001
 1.92260000e-002
 -5.41690000e-002
 -5.24900000e-002
 8.36180000e-002
 2.46429000e-001
 1.74561000e-001
 8.75850000e-002
 8.39200000e-003
 1.81580000e-001
 2.45056000e-001
 3.37982000e-001
 2.14691000e-001
 1.18561000e-001
 1.18256000e-001
 3.77655000e-001
 5.74341000e-001
 4.76990000e-001
 4.03290000e-001
 3.30048000e-001
 4.08325000e-001
 4.61731000e-001
 5.88989000e-001
 4.30145000e-001
 2.40173000e-001
 2.92206000e-001
 4.24957000e-001
 5.02319000e-001
 5.86090000e-001
 5.94482000e-001
 2.83813000e-001
 3.45459000e-001
 6.06689000e-001
 7.43866000e-001
 6.49567000e-001
 5.27802000e-001
 3.15247000e-001
 5.08423000e-001
 6.47736000e-001
 7.78503000e-001
 5.45044000e-001
 3.27759000e-001
 5.22461000e-001
 6.34003000e-001
 7.39746000e-001
 6.43768000e-001
 6.19354000e-001
 4.72870000e-001
 6.24390000e-001
 8.01544000e-001
 7.20215000e-001
 5.57098000e-001
 5.69763000e-001
 5.43365000e-001
 6.20728000e-001
 8.47626000e-001
 6.11572000e-001
 5.42908000e-001
 4.56696000e-001
 5.71442000e-001
 6.60858000e-001
 6.70471000e-001
 5.46875000e-001
 3.69720000e-001
 2.68555000e-001
 3.52936000e-001
 4.61121000e-001
 3.71399000e-001
 2.13470000e-001
 1.11542000e-001
 1.96991000e-001
 2.32391000e-001
 4.77295000e-001
 3.56140000e-001
 1.67389000e-001
 1.14746000e-001
 2.35291000e-001
 2.76642000e-001
 2.97699000e-001
 1.03760000e-001
 -2.21100000e-001
 -1.76544000e-001
 6.77490000e-002
 1.79749000e-001
 -3.84520000e-002
 -1.57013000e-001
 -1.70898000e-001
 -1.80817000e-001
 -7.15640000e-002
 4.12000000e-003
 -1.82648000e-001
 -4.37012000e-001
 -4.26178000e-001
 -2.32086000e-001
 -1.59607000e-001
 -3.04565000e-001
 -3.17383000e-001
 -5.81818000e-001
 -3.32489000e-001
 -2.30408000e-001
 -2.98004000e-001
 -5.31921000e-001
 -6.69861000e-001
 -6.88324000e-001
 -6.35681000e-001
 -4.17328000e-001
 -5.14832000e-001
 -6.77032000e-001
 -6.98700000e-001
 -6.05927000e-001
 -5.40314000e-001
 -4.03137000e-001
 -4.61731000e-001
 -6.22101000e-001
 -6.41174000e-001
 -5.45197000e-001
 -4.41742000e-001
 -5.95398000e-001
 -7.24792000e-001
 -9.01642000e-001
 -8.71582000e-001
 -7.03125000e-001
 -4.23431000e-001
 -6.79626000e-001
 -8.43048000e-001
 -7.88879000e-001
 -6.02417000e-001
 -6.32782000e-001
 -6.53381000e-001
 -6.97174000e-001
 -8.31604000e-001
 -6.17065000e-001
 -5.29785000e-001
 -5.03387000e-001
 -6.62231000e-001
 -7.15485000e-001
 -8.26721000e-001
 -7.51190000e-001
 -5.99518000e-001
 -5.94635000e-001
 -7.81403000e-001
 -9.35211000e-001
 -7.75757000e-001
 -6.64978000e-001
 -4.03290000e-001
 -5.43823000e-001
 -7.10449000e-001
 -7.37762000e-001
 -5.57404000e-001
 -6.21796000e-001
 -7.16553000e-001
 -7.00989000e-001
 -7.91626000e-001
 -7.13806000e-001
 -6.47583000e-001
 -4.16718000e-001
 -5.61066000e-001
 -6.77338000e-001
 -6.75812000e-001
 -4.86145000e-001
 -5.15594000e-001
 -5.25360000e-001
 -5.21240000e-001
 -8.75702000e-001
 -9.42688000e-001
 -8.18024000e-001
 -7.83691000e-001
 -8.26263000e-001
 -8.19855000e-001
 -7.85522000e-001
 -7.01904000e-001
 -7.16705000e-001
 -5.55115000e-001
 -7.15332000e-001
 -9.09119000e-001
 -9.11407000e-001
 -7.68433000e-001
 -5.60455000e-001
 -5.71747000e-001
 -6.31561000e-001
 -8.48541000e-001
 -7.33185000e-001
 -5.90820000e-001
 -5.21851000e-001
 -7.89490000e-001
 -8.09784000e-001
 -8.07343000e-001
 -7.00226000e-001
 -5.24750000e-001
 -6.26678000e-001
 -8.75244000e-001
 -1.00906400e+000
 -8.22601000e-001
 -6.28052000e-001
 -5.42908000e-001
 -6.36902000e-001
 -6.86188000e-001
 -7.16095000e-001
 -5.03998000e-001
 -4.63867000e-001
 -5.44586000e-001
 -7.93610000e-001
 -9.77783000e-001
 -8.95538000e-001
 -7.30438000e-001
 -4.59137000e-001
 -7.24030000e-001
 -8.28247000e-001
 -7.87811000e-001
 -6.04248000e-001
 -5.50232000e-001
 -5.23376000e-001
 -6.45142000e-001
 -8.55103000e-001
 -8.58612000e-001
 -6.97021000e-001
 -5.84564000e-001
 -7.86743000e-001
 -8.16803000e-001
 -9.28497000e-001
 -8.76007000e-001
 -6.93970000e-001
 -5.29633000e-001
 -8.04596000e-001
 -8.96606000e-001
 -8.96606000e-001
 -6.90918000e-001
 -5.07507000e-001
 -5.47943000e-001
 -6.63300000e-001
 -8.40759000e-001
 -5.12085000e-001
 -3.12195000e-001
 -4.07410000e-001
 -6.02417000e-001
 -6.42242000e-001
 -8.30078000e-001
 -7.66754000e-001
 -5.59998000e-001
 -5.78003000e-001
 -7.53784000e-001
 -9.13086000e-001
 -7.42798000e-001
 -6.60858000e-001
 -6.71844000e-001
 -7.54700000e-001
 -8.67004000e-001
 -8.99048000e-001
 -6.28815000e-001
 -5.35889000e-001
 -5.48096000e-001
 -6.57959000e-001
 -7.52563000e-001
 -7.37610000e-001
 -7.81097000e-001
 -5.67017000e-001
 -8.12378000e-001
 -1.03286700e+000
 -9.18732000e-001
 -7.45239000e-001
 -6.16150000e-001
 -5.59387000e-001
 -5.91278000e-001
 -8.83789000e-001
 -7.89948000e-001
 -6.52313000e-001
 -5.93109000e-001
 -7.80792000e-001
 -7.83234000e-001
 -7.84607000e-001
 -7.75299000e-001
 -7.34863000e-001
 -6.76727000e-001
 -8.62122000e-001
 -1.02905300e+000
 -8.68530000e-001
 -7.17773000e-001
 -6.86035000e-001
 -6.48956000e-001
 -6.66504000e-001
 -9.08051000e-001
 -7.27081000e-001
 -5.29633000e-001
 -5.38025000e-001
 -7.84607000e-001
 -8.75854000e-001
 -8.07343000e-001
 -7.77893000e-001
 -5.48401000e-001
 -6.64520000e-001
 -7.32880000e-001
 -8.79517000e-001
 -6.38733000e-001
 -6.19202000e-001
 -6.25610000e-001
 -6.14471000e-001
 -7.61566000e-001
 -8.25958000e-001
 -6.87256000e-001
 -5.76172000e-001
 -7.15790000e-001
 -8.73108000e-001
 -9.48944000e-001
 -7.99408000e-001
 -8.04291000e-001
 -7.23419000e-001
 -8.11005000e-001
 -8.81500000e-001
 -9.10950000e-001
 -7.44781000e-001
 -6.45905000e-001
 -7.29370000e-001
 -7.04651000e-001
 -8.17413000e-001
 -6.70929000e-001
 -5.75867000e-001
 -5.83191000e-001
 -8.48541000e-001
 -9.43146000e-001
 -8.49304000e-001
 -8.24738000e-001
 -6.71997000e-001
 -6.52771000e-001
 -8.46863000e-001
 -9.69238000e-001
 -8.57239000e-001
 -7.31506000e-001
 -5.32227000e-001
 -5.63202000e-001
 -6.67877000e-001
 -8.13599000e-001
 -6.15997000e-001
 -4.91791000e-001
 -5.33295000e-001
 -6.44531000e-001
 -6.73828000e-001
 -5.91583000e-001
 -4.88434000e-001
 -2.62604000e-001
 -3.65448000e-001
 -5.06744000e-001
 -6.29883000e-001
 -3.87421000e-001
 -2.76642000e-001
 -2.74506000e-001
 -3.72620000e-001
 -5.49469000e-001
 -4.70886000e-001
 -1.52283000e-001
 -1.55334000e-001
 -2.55890000e-001
 -2.86407000e-001
 -4.64935000e-001
 -3.26691000e-001
 -3.04871000e-001
 -1.43585000e-001
 -4.36707000e-001
 -6.18286000e-001
 -5.31921000e-001
 -3.32642000e-001
 -1.69067000e-001
 -2.39563000e-001
 -2.52228000e-001
 -5.18188000e-001
 -3.83301000e-001
 -2.07977000e-001
 -1.09863000e-001
 -2.04010000e-001
 -3.02887000e-001
 -4.23126000e-001
 -3.45459000e-001
 -1.14594000e-001
 -3.06700000e-002
 -2.93274000e-001
 -4.99573000e-001
 -3.16620000e-001
 -1.65100000e-001
 -1.13068000e-001
 -1.38245000e-001
 -2.20337000e-001
 -4.06952000e-001
 -1.97296000e-001
 -8.83480000e-002
 -1.12305000e-001
 -3.29437000e-001
 -4.01001000e-001
 -4.26788000e-001
 -4.60510000e-001
 -2.25983000e-001
 -3.75061000e-001
 -5.11017000e-001
 -6.47278000e-001
 -4.19464000e-001
 -3.68195000e-001
 -3.51715000e-001
 -4.93774000e-001
 -5.90210000e-001
 -5.85785000e-001
 -4.68292000e-001
 -4.61731000e-001
 -6.47430000e-001
 -6.50330000e-001
 -8.81805000e-001
 -8.12683000e-001
 -7.04803000e-001
 -4.89044000e-001
 -7.52563000e-001
 -8.78754000e-001
 -7.71942000e-001
 -7.08313000e-001
 -8.10242000e-001
 -7.49512000e-001
 -7.74078000e-001
 -1.05819700e+000
 -9.94873000e-001
 -8.65631000e-001
 -8.16498000e-001
 -9.32312000e-001
 -9.88159000e-001
 -9.47113000e-001
 -1.01898200e+000
 -8.33588000e-001
 -7.76825000e-001
 -9.75494000e-001
 -1.04049700e+000
 -8.72955000e-001
 -7.28760000e-001
 -6.55670000e-001
 -6.52008000e-001
 -7.57294000e-001
 -1.02386500e+000
 -8.07190000e-001
 -6.51398000e-001
 -7.16095000e-001
 -8.43201000e-001
 -9.19495000e-001
 -9.36432000e-001
 -9.15680000e-001
 -6.40869000e-001
 -8.07037000e-001
 -1.00936900e+000
 -1.04415900e+000
 -9.14917000e-001
 -9.62677000e-001
 -9.73969000e-001
 -9.44366000e-001
 -1.07849100e+000
 -9.48181000e-001
 -8.43811000e-001
 -7.33795000e-001
 -8.35266000e-001
 -9.76715000e-001
 -1.07376100e+000
 -9.81293000e-001
 -8.91876000e-001
 -8.03986000e-001
 -9.94415000e-001
 -1.05316200e+000
 -8.13446000e-001
 -6.93512000e-001
 -6.01196000e-001
 -6.62842000e-001
 -7.40967000e-001
 -9.26208000e-001
 -7.23419000e-001
 -7.05261000e-001
 -7.17621000e-001
 -1.01913500e+000
 -1.12487800e+000
 -1.13159200e+000
 -1.01715100e+000
 -8.55713000e-001
 -8.59680000e-001
 -8.98743000e-001
 -1.09420800e+000
 -8.63800000e-001
 -7.20978000e-001
 -6.81915000e-001
 -7.41730000e-001
 -9.52911000e-001
 -1.04797400e+000
 -7.88116000e-001
 -6.30798000e-001
 -7.90100000e-001
 -8.86536000e-001
 -9.49707000e-001
 -1.00128200e+000
 -9.78851000e-001
 -7.46155000e-001
 -9.46045000e-001
 -1.00769000e+000
 -1.13861100e+000
 -1.02188100e+000
 -8.57697000e-001
 -7.82623000e-001
 -8.78601000e-001
 -1.11022900e+000
 -9.74731000e-001
 -8.01849000e-001
 -6.89850000e-001
 -8.04443000e-001
 -7.99866000e-001
 -8.11920000e-001
 -5.34515000e-001
 -3.41949000e-001
 -2.44751000e-001
 -2.66724000e-001
 -1.60217000e-001
 2.84576000e-001
 7.38373000e-001
 1.13998400e+000
 1.41449000e+000
 1.65710400e+000
 1.51214600e+000
 1.81594800e+000
 2.14813200e+000
 2.41165200e+000
 2.47940100e+000
 2.48016400e+000
 2.55950900e+000
 2.65090900e+000
 2.64389000e+000
 2.65121500e+000
 2.64953600e+000
 2.22778300e+000
 1.99264500e+000
 1.61453200e+000
 1.20147700e+000
 7.24487000e-001
 4.14886000e-001
 3.09296000e-001
 5.04913000e-001
 4.01917000e-001
 2.74660000e-002
 -7.47680000e-002
 -2.69165000e-001
 -3.17841000e-001
 -2.97852000e-001
 -1.18256000e-001
 -4.02069000e-001
 -7.06482000e-001
 -7.11823000e-001
 -6.53687000e-001
 -6.63910000e-001
 -7.52716000e-001
 -9.45740000e-001
 -1.31637600e+000
 -1.50772100e+000
 -1.53808600e+000
 -1.68808000e+000
 -1.96472200e+000
 -2.02606200e+000
 -2.20932000e+000
 -2.07260100e+000
 -1.88537600e+000
 -1.76422100e+000
 -1.98669400e+000
 -2.02850300e+000
 -1.87637300e+000
 -1.80267300e+000
 -1.59713700e+000
 -1.58523600e+000
 -1.67450000e+000
 -1.79672200e+000
 -1.46896400e+000
 -1.31408700e+000
 -1.29089400e+000
 -1.31271400e+000
 -1.37420700e+000
 -1.27639800e+000
 -1.05072000e+000
 -8.70514000e-001
 -1.01974500e+000
 -1.08062700e+000
 -1.12716700e+000
 -8.72498000e-001
 -8.06580000e-001
 -8.21686000e-001
 -8.24127000e-001
 -9.74884000e-001
 -9.71527000e-001
 -6.83136000e-001
 -4.90112000e-001
 -7.53021000e-001
 -9.28497000e-001
 -9.92584000e-001
 -9.69849000e-001
 -9.41010000e-001
 -7.61414000e-001
 -8.96912000e-001
 -1.04476900e+000
 -1.02600100e+000
 -9.32312000e-001
 -7.89948000e-001
 -7.35168000e-001
 -7.58514000e-001
 -9.05457000e-001
 -7.65076000e-001
 -5.69153000e-001
 -6.18134000e-001
 -7.61871000e-001
 -9.14154000e-001
 -9.73053000e-001
 -9.30786000e-001
 -7.80182000e-001
 -7.10602000e-001
 -8.63953000e-001
 -1.04660000e+000
 -7.55768000e-001
 -5.13916000e-001
 -6.06537000e-001
 -7.20520000e-001
 -7.03735000e-001
 -8.81500000e-001
 -6.82678000e-001
 -6.71387000e-001
 -6.61163000e-001
 -8.26569000e-001
 -9.57489000e-001
 -9.13391000e-001
 -8.76617000e-001
 -6.99310000e-001
 -9.22699000e-001
 -1.10061600e+000
 -1.04538000e+000
 -7.75909000e-001
 -7.67365000e-001
 -6.79779000e-001
 -7.41119000e-001
 -8.47626000e-001
 -8.13446000e-001
 -7.05872000e-001
 -6.16608000e-001
 -7.85828000e-001
 -8.98743000e-001
 -9.86938000e-001
 -9.71985000e-001
 -7.92236000e-001
 -7.60803000e-001
 -8.20923000e-001
 -8.04443000e-001
 -7.54852000e-001
 -6.59180000e-001
 -6.57501000e-001
 -7.53784000e-001
 -7.91473000e-001
 -9.97467000e-001
 -8.32672000e-001
 -7.21893000e-001
 -5.93567000e-001
 -7.30286000e-001
 -8.43201000e-001
 -9.72595000e-001
 -7.93457000e-001
 -6.14166000e-001
 -5.65643000e-001
 -7.46613000e-001
 -9.69086000e-001
 -8.18329000e-001
 -7.24030000e-001
 -6.60400000e-001
 -7.14722000e-001
 -7.53479000e-001
 -8.64105000e-001
 -6.98700000e-001
 -5.55267000e-001
 -5.50995000e-001
 -6.59485000e-001
 -7.95288000e-001
 -8.70819000e-001
 -7.49054000e-001
 -5.39246000e-001
 -6.43921000e-001
 -8.01086000e-001
 -9.00116000e-001
 -7.03735000e-001
 -6.02264000e-001
 -5.50690000e-001
 -5.82275000e-001
 -7.27692000e-001
 -6.83441000e-001
 -5.70679000e-001
 -4.48151000e-001
 -6.45752000e-001
 -7.73926000e-001
 -8.32214000e-001
 -7.91321000e-001
 -7.40051000e-001
 -6.02112000e-001
 -7.86133000e-001
 -7.95898000e-001
 -6.84967000e-001
 -5.34058000e-001
 -4.16718000e-001
 -5.69916000e-001
 -5.90210000e-001
 -7.65533000e-001
 -5.48248000e-001
 -4.29077000e-001
 -5.10254000e-001
 -6.57959000e-001
 -6.66046000e-001
 -6.75201000e-001
 -5.86700000e-001
 -3.66516000e-001
 -4.14886000e-001
 -5.57709000e-001
 -6.73523000e-001
 -5.67932000e-001
 -4.29993000e-001
 -3.19824000e-001
 -3.54767000e-001
 -5.12543000e-001
 -5.97229000e-001
 -3.57971000e-001
 -3.59497000e-001
 -4.61578000e-001
 -5.13916000e-001
 -5.09338000e-001
 -3.94745000e-001
 -3.33710000e-001
 -1.03760000e-001
 -3.38287000e-001
 -4.66614000e-001
 -4.53491000e-001
 -2.55737000e-001
 -1.58844000e-001
 -1.74713000e-001
 -1.67236000e-001
 -3.24860000e-001
 -2.98309000e-001
 -1.16730000e-001
 -8.13290000e-002
 -1.61591000e-001
 -1.13678000e-001
 -1.96686000e-001
 -2.06909000e-001
 -1.40076000e-001
 -1.60220000e-002
 -2.05078000e-001
 -3.34930000e-001
 -1.86005000e-001
 5.72200000e-002
 1.10321000e-001
 3.55530000e-002
 5.75260000e-002
 -2.05078000e-001
 -5.69150000e-002
 8.78910000e-002
 7.67520000e-002
 -4.97440000e-002
 -5.08120000e-002
 7.58360000e-002
 1.22375000e-001
 3.07007000e-001
 2.92206000e-001
 8.65170000e-002
 -1.56250000e-001
 1.31230000e-002
 1.40228000e-001
 2.31781000e-001
 1.81427000e-001
 1.33820000e-001
 5.87460000e-002
 2.00348000e-001
 3.20282000e-001
 2.97241000e-001
 3.54614000e-001
 2.13013000e-001
 1.35651000e-001
 2.66571000e-001
 4.17175000e-001
 2.27509000e-001
 1.44653000e-001
 7.15640000e-002
 1.69678000e-001
 2.64740000e-001
 4.01611000e-001
 3.75824000e-001
 1.65710000e-001
 3.41492000e-001
 4.14429000e-001
 4.28925000e-001
 2.50702000e-001
 2.56653000e-001
 1.29242000e-001
 2.92511000e-001
 4.52881000e-001
 4.73480000e-001
 2.42767000e-001
 7.17160000e-002
 1.66016000e-001
 2.21405000e-001
 3.16925000e-001
 3.18146000e-001
 1.81580000e-001
 -1.02386000e-001
 1.06049000e-001
 2.70844000e-001
 2.32239000e-001
 8.62120000e-002
 -5.78310000e-002
 -1.01776000e-001
 -8.97220000e-002
 9.81140000e-002
 -4.48610000e-002
 -2.38342000e-001
 -2.83661000e-001
 -8.81960000e-002
 -1.17490000e-002
 -1.92260000e-002
 -1.85699000e-001
 -2.43073000e-001
 -1.61438000e-001
 -3.73840000e-002
 -3.05180000e-002
 -1.66321000e-001
 -3.10211000e-001
 -4.89807000e-001
 -5.64575000e-001
 -6.84509000e-001
 -5.08881000e-001
 -5.81360000e-001
 -7.08008000e-001
 -7.05719000e-001
 -5.67322000e-001
 -4.46777000e-001
 -4.89655000e-001
 -5.71442000e-001
 -7.75299000e-001
 -6.86493000e-001
 -5.31158000e-001
 -4.80194000e-001
 -6.93970000e-001
 -7.54395000e-001
 -7.01904000e-001
 -7.05109000e-001
 -5.64117000e-001
 -5.04150000e-001
 -7.28760000e-001
 -9.48486000e-001
 -9.07288000e-001
 -7.17163000e-001
 -5.61066000e-001
 -6.50024000e-001
 -7.78961000e-001
 -1.00097700e+000
 -8.07800000e-001
 -6.41327000e-001
 -6.49719000e-001
 -7.46765000e-001
 -9.12018000e-001
 -9.48181000e-001
 -8.55408000e-001
 -6.76270000e-001
 -8.69598000e-001
 -9.47723000e-001
 -1.04171800e+000
 -8.99963000e-001
 -7.84760000e-001
 -6.26526000e-001
 -6.95190000e-001
 -9.34448000e-001
 -1.06552100e+000
 -9.02405000e-001
 -7.29370000e-001
 -7.54242000e-001
 -8.65021000e-001
 -1.04248000e+000
 -1.05514500e+000
 -9.72443000e-001
 -8.22449000e-001
 -1.02035500e+000
 -1.00769000e+000
 -9.85870000e-001
 -8.13141000e-001
 -7.02972000e-001
 -7.39594000e-001
 -8.79669000e-001
 -1.13006600e+000
 -9.32465000e-001
 -7.76825000e-001
 -6.99921000e-001
 -8.33130000e-001
 -9.00421000e-001
 -9.14459000e-001
 -9.37347000e-001
 -8.80127000e-001
 -9.30786000e-001
 -9.92279000e-001
 -1.06750500e+000
 -9.43909000e-001
 -8.77380000e-001
 -7.86438000e-001
 -8.59375000e-001
 -8.05664000e-001
 -9.99756000e-001
 -8.83636000e-001
 -7.67670000e-001
 -7.76672000e-001
 -8.35114000e-001
 -8.83484000e-001
 -8.93402000e-001
 -8.15125000e-001
 -6.46820000e-001
 -8.14972000e-001
 -9.59625000e-001
 -1.01730300e+000
 -8.65173000e-001
 -7.34558000e-001
 -7.11212000e-001
 -8.43201000e-001
 -1.00799600e+000
 -9.45282000e-001
 -8.79517000e-001
 -7.72247000e-001
 -8.18787000e-001
 -9.30328000e-001
 -1.00708000e+000
 -8.65936000e-001
 -7.38220000e-001
 -6.10504000e-001
 -8.39539000e-001
 -9.69696000e-001
 -9.48029000e-001
 -8.80127000e-001
 -8.11615000e-001
 -8.44727000e-001
 -7.62787000e-001
 -9.25598000e-001
 -8.30078000e-001
 -7.24182000e-001
 -6.57806000e-001
 -8.50830000e-001
 -9.15833000e-001
 -8.50525000e-001
 -7.91168000e-001
 -5.95398000e-001
 -6.38123000e-001
 -8.25653000e-001
 -1.03271500e+000
 -9.17664000e-001
 -7.64618000e-001
 -7.48749000e-001
 -8.38165000e-001
 -9.41772000e-001
 -1.09787000e+000
 -9.04236000e-001
 -7.22504000e-001
 -7.63397000e-001
 -9.32922000e-001
 -1.05773900e+000
 -9.92279000e-001
 -8.95844000e-001
 -6.70319000e-001
 -8.58154000e-001
 -1.00708000e+000
 -1.08047500e+000
 -8.90808000e-001
 -7.50885000e-001
 -7.44934000e-001
 -8.58459000e-001
 -1.08383200e+000
 -1.01409900e+000
 -7.34711000e-001
 -5.77240000e-001
 -7.76367000e-001
 -9.38263000e-001
 -1.10473600e+000
 -9.01794000e-001
 -8.51288000e-001
 -8.09937000e-001
 -1.01120000e+000
 -1.10763500e+000
 -9.74121000e-001
 -7.17316000e-001
 -6.42242000e-001
 -6.03180000e-001
 -5.75714000e-001
 -8.29010000e-001
 -7.65076000e-001
 -6.09589000e-001
 -5.69000000e-001
 -6.87866000e-001
 -8.16345000e-001
 -9.43451000e-001
 -8.41980000e-001
 -6.33545000e-001
 -6.72760000e-001
 -8.61206000e-001
 -9.77631000e-001
 -7.46002000e-001
 -6.11572000e-001
 -5.74493000e-001
 -7.03430000e-001
 -8.12073000e-001
 -8.97522000e-001
 -6.17065000e-001
 -4.60510000e-001
 -7.22046000e-001
 -9.19952000e-001
 -9.63287000e-001
 -9.60236000e-001
 -8.56934000e-001
 -5.44586000e-001
 -7.45697000e-001
 -8.63495000e-001
 -8.30231000e-001
 -6.83441000e-001
 -6.97632000e-001
 -6.87714000e-001
 -7.30133000e-001
 -8.27026000e-001
 -7.04498000e-001
 -6.14624000e-001
 -5.39093000e-001
 -6.57654000e-001
 -7.49664000e-001
 -8.38776000e-001
 -8.11920000e-001
 -6.68488000e-001
 -6.05316000e-001
 -6.74896000e-001
 -6.27899000e-001
 -6.14319000e-001
 -6.36597000e-001
 -5.49469000e-001
 -4.69513000e-001
 -4.30450000e-001
 -6.49109000e-001
 -5.57709000e-001
 -4.33502000e-001
 -4.70123000e-001
 -5.27496000e-001
 -6.24695000e-001
 -5.76477000e-001
 -5.07812000e-001
 -2.15759000e-001
 -3.72314000e-001
 -5.55115000e-001
 -6.69708000e-001
 -4.46472000e-001
 -3.34625000e-001
 -2.28271000e-001
 -2.18048000e-001
 -3.08533000e-001
 -3.34015000e-001
 -2.34833000e-001
 -1.53198000e-001
 -2.82440000e-001
 -3.14484000e-001
 -3.84674000e-001
 -3.42560000e-001
 -3.24707000e-001
 -2.05383000e-001
 -3.38135000e-001
 -5.56946000e-001
 -5.34515000e-001
 -3.21045000e-001
 -9.04850000e-002
 -2.71610000e-002
 -7.75150000e-002
 -3.68958000e-001
 -2.53296000e-001
 -2.66418000e-001
 -1.58844000e-001
 -3.50952000e-001
 -3.08380000e-001
 -5.04456000e-001
 -4.11530000e-001
 -2.60315000e-001
 -2.28424000e-001
 -4.13818000e-001
 -4.71344000e-001
 -4.15649000e-001
 -4.00085000e-001
 -2.16064000e-001
 -2.82288000e-001
 -4.42963000e-001
 -7.11212000e-001
 -5.18799000e-001
 -3.77655000e-001
 -4.16412000e-001
 -5.04303000e-001
 -5.29022000e-001
 -6.83136000e-001
 -6.89850000e-001
 -4.41742000e-001
 -5.71136000e-001
 -7.89642000e-001
 -8.66852000e-001
 -6.35223000e-001
 -5.77698000e-001
 -4.95453000e-001
 -6.14319000e-001
 -7.79724000e-001
 -8.60138000e-001
 -7.48291000e-001
 -5.85937000e-001
 -6.97327000e-001
 -7.53021000e-001
 -8.85010000e-001
 -8.95996000e-001
 -8.59222000e-001
 -7.15485000e-001
 -9.20105000e-001
 -1.09222400e+000
 -1.14395100e+000
 -1.03134200e+000
 -9.36279000e-001
 -8.52356000e-001
 -8.18939000e-001
 -9.95789000e-001
 -8.50220000e-001
 -7.67670000e-001
 -6.48956000e-001
 -8.43811000e-001
 -9.21021000e-001
 -1.01364100e+000
 -9.59473000e-001
 -7.82928000e-001
 -8.42438000e-001
 -1.03439300e+000
 -1.09329200e+000
 -9.24988000e-001
 -8.62885000e-001
 -8.70972000e-001
 -8.99200000e-001
 -9.15527000e-001
 -1.04690600e+000
 -8.00629000e-001
 -7.20673000e-001
 -8.24432000e-001
 -9.69391000e-001
 -9.96552000e-001
 -1.04156500e+000
 -8.97064000e-001
 -6.09131000e-001
 -8.99963000e-001
 -1.08139000e+000
 -1.14425700e+000
 -9.34448000e-001
 -9.05609000e-001
 -9.35822000e-001
 -9.54132000e-001
 -9.32617000e-001
 -8.86993000e-001
 -7.71179000e-001
 -6.85730000e-001
 -8.62579000e-001
 -9.30634000e-001
 -1.07467700e+000
 -9.84039000e-001
 -8.47778000e-001
 -8.06122000e-001
 -9.67102000e-001
 -1.03546100e+000
 -9.85260000e-001
 -7.69501000e-001
 -6.92596000e-001
 -8.01849000e-001
 -8.37250000e-001
 -1.06597900e+000
 -8.59528000e-001
 -7.26318000e-001
 -7.37305000e-001
 -8.71582000e-001
 -9.56573000e-001
 -8.57544000e-001
 -8.21075000e-001
 -8.06885000e-001
 -8.33282000e-001
 -1.02066000e+000
 -1.13281200e+000
 -8.67920000e-001
 -7.03583000e-001
 -6.61163000e-001
 -7.82776000e-001
 -9.22546000e-001
 -1.02539100e+000
 -8.58002000e-001
 -6.69098000e-001
 -7.24792000e-001
 -8.23517000e-001
 -9.25140000e-001
 -9.49402000e-001
 -9.31244000e-001
 -6.28052000e-001
 -8.64105000e-001
 -1.03271500e+000
 -9.41315000e-001
 -6.95038000e-001
 -6.16913000e-001
 -4.31976000e-001
 -4.12903000e-001
 -4.67224000e-001
 -2.65656000e-001
 7.47700000e-003
 2.64893000e-001
 3.10516000e-001
 4.51660000e-001
 7.83691000e-001
 1.12091100e+000
 1.44714400e+000
 1.96273800e+000
 1.97509800e+000
 1.97860700e+000
 2.25082400e+000
 2.47894300e+000
 2.65914900e+000
 2.64617900e+000
 2.65045200e+000
 2.64572100e+000
 2.64389000e+000
 2.65976000e+000
 2.64297500e+000
 2.65136700e+000
 2.55355800e+000
 2.11746200e+000
 1.63238500e+000
 1.36611900e+000
 9.42841000e-001
 5.58472000e-001
 2.87018000e-001
 3.77502000e-001
 2.39258000e-001
 1.47095000e-001
 -3.93680000e-002
 -1.43738000e-001
 -3.30505000e-001
 -2.88391000e-001
 -2.20032000e-001
 -4.19769000e-001
 -5.22766000e-001
 -6.46973000e-001
 -8.00476000e-001
 -8.57239000e-001
 -7.11365000e-001
 -1.12869300e+000
 -1.45690900e+000
 -1.74133300e+000
 -1.69815100e+000
 -1.61621100e+000
 -1.56906100e+000
 -1.66870100e+000
 -1.72637900e+000
 -1.58294700e+000
 -1.46621700e+000
 -1.38305700e+000
 -1.59988400e+000
 -1.69525100e+000
 -1.76834100e+000
 -1.53640700e+000
 -1.36016800e+000
 -1.21826200e+000
 -1.31790200e+000
 -1.34094200e+000
 -1.15905800e+000
 -8.93860000e-001
 -7.72247000e-001
 -8.37860000e-001
 -8.54797000e-001
 -9.53979000e-001
 -6.13861000e-001
 -4.24957000e-001
 -3.43933000e-001
 -4.64325000e-001
 -5.78766000e-001
 -5.19104000e-001
 -4.33807000e-001
 -3.42865000e-001
 -4.58069000e-001
 -5.39246000e-001
 -6.37360000e-001
 -4.94232000e-001
 -2.90375000e-001
 -5.90520000e-002
 -1.77917000e-001
 -4.13666000e-001
 -4.90723000e-001
 -2.59857000e-001
 -1.48163000e-001
 -1.85699000e-001
 -3.94745000e-001
 -6.32477000e-001
 -4.52118000e-001
 -3.31879000e-001
 -5.55420000e-002
 -2.28271000e-001
 -3.72314000e-001
 -3.28522000e-001
 -1.67236000e-001
 -1.20392000e-001
 -1.18561000e-001
 -2.81677000e-001
 -4.82941000e-001
 -4.41132000e-001
 -1.78070000e-001
 -6.17980000e-002
 -1.49536000e-001
 -2.28729000e-001
 -3.66211000e-001
 -3.75061000e-001
 -2.30865000e-001
 -1.10779000e-001
 -2.99377000e-001
 -4.94537000e-001
 -4.17023000e-001
 -2.07672000e-001
 -1.36871000e-001
 -1.71661000e-001
 -1.67084000e-001
 -2.98004000e-001
 -1.07269000e-001
 -2.16670000e-002
 -8.59070000e-002
 -2.92206000e-001
 -4.15192000e-001
 -3.67737000e-001
 -3.39050000e-001
 -1.43433000e-001
 -2.25830000e-001
 -3.85284000e-001
 -4.65240000e-001
 -2.14386000e-001
 -9.27730000e-002
 1.60220000e-002
 -3.50950000e-002
 -4.94380000e-002
 -1.82037000e-001
 -2.15150000e-002
 -2.74660000e-002
 -1.50146000e-001
 -2.40021000e-001
 -3.43628000e-001
 -3.07922000e-001
 -2.17896000e-001
 -4.60820000e-002
 -2.79694000e-001
 -4.08630000e-001
 -3.52783000e-001
 -1.45569000e-001
 -1.89210000e-002
 8.10240000e-002
 -5.18800000e-003
 -1.92719000e-001
 -8.19400000e-002
 -5.41690000e-002
 -4.92860000e-002
 -2.76489000e-001
 -2.71149000e-001
 -3.70331000e-001
 -2.79236000e-001
 -1.06812000e-001
 -2.09050000e-002
 -5.00490000e-002
 -2.38342000e-001
 -1.54266000e-001
 -6.40870000e-002
 -1.52590000e-002
 -4.11990000e-002
 -1.27411000e-001
 -3.33405000e-001
 -8.98740000e-002
 4.37930000e-002
 3.96700000e-003
 -1.68304000e-001
 -3.23792000e-001
 -2.29340000e-001
 -4.79130000e-002
 1.83105000e-001
 -5.95090000e-002
 -2.28729000e-001
 -2.64282000e-001
 -3.00600000e-002
 4.50130000e-002
 8.52970000e-002
 1.15662000e-001
 1.37300000e-003
 -7.62940000e-002
 7.17160000e-002
 9.99450000e-002
 8.39200000e-003
 -1.08490000e-001
 -2.41241000e-001
 -8.75850000e-002
 9.91800000e-003
 1.09100000e-001
 -1.78530000e-002
 -1.97296000e-001
 -1.43738000e-001
 7.49210000e-002
 1.91193000e-001
 2.78473000e-001
 2.30713000e-001
 -9.76600000e-003
 1.23138000e-001
 2.40173000e-001
 3.63159000e-001
 2.52228000e-001
 1.26343000e-001
 -2.13600000e-003
 1.54572000e-001
 3.98712000e-001
 3.03040000e-001
 7.98030000e-002
 -5.20320000e-002
 2.17438000e-001
 3.60870000e-001
 3.99933000e-001
 3.60107000e-001
 3.80859000e-001
 2.36664000e-001
 4.09241000e-001
 5.19257000e-001
 5.31006000e-001
 3.74298000e-001
 2.11487000e-001
 2.62756000e-001
 4.45251000e-001
 6.55060000e-001
 4.14429000e-001
 3.18756000e-001
 2.73132000e-001
 4.69971000e-001
 5.90515000e-001
 6.42090000e-001
 5.63965000e-001
 3.82690000e-001
 4.72107000e-001
 6.63757000e-001
 8.17108000e-001
 6.89392000e-001
 6.55212000e-001
 5.94940000e-001
 5.43671000e-001
 5.63965000e-001
 8.21533000e-001
 5.66406000e-001
 3.81012000e-001
 5.03235000e-001
 6.47430000e-001
 7.23724000e-001
 7.23114000e-001
 6.94885000e-001
 4.22363000e-001
 6.58417000e-001
 9.91516000e-001
 9.13239000e-001
 6.30646000e-001
 6.36749000e-001
 5.57404000e-001
 6.35071000e-001
 8.70361000e-001
 8.95844000e-001
 6.35376000e-001
 4.69360000e-001
 7.25250000e-001
 9.17816000e-001
 1.06536900e+000
 9.00421000e-001
 6.77338000e-001
 5.99213000e-001
 7.78198000e-001
 9.73511000e-001
 1.05819700e+000
 9.15070000e-001
 7.52716000e-001
 6.77032000e-001
 8.34045000e-001
 1.11709600e+000
 9.45129000e-001
 8.68683000e-001
 8.03070000e-001
 9.75342000e-001
 9.67255000e-001
 9.51080000e-001
 9.75494000e-001
 7.44019000e-001
 6.96564000e-001
 7.62177000e-001
 8.75397000e-001
 7.76978000e-001
 6.88629000e-001
 5.69153000e-001
 6.87408000e-001
 8.24280000e-001
 9.52759000e-001
 6.78406000e-001
 4.67987000e-001
 5.03845000e-001
 5.88379000e-001
 6.72913000e-001
 7.27844000e-001
 6.69556000e-001
 3.57819000e-001
 4.82788000e-001
 5.54352000e-001
 5.48859000e-001
 3.45154000e-001
 2.52838000e-001
 2.05078000e-001
 2.63824000e-001
 3.50494000e-001
 2.13318000e-001
 2.99070000e-002
 -1.70898000e-001
 -3.67740000e-002
 7.14110000e-002
 2.41547000e-001
 1.54572000e-001
 7.85830000e-002
 -2.83810000e-002
 1.39465000e-001
 1.93481000e-001
 7.82780000e-002
 -3.00751000e-001
 -4.26941000e-001
 -3.13263000e-001
 -1.59912000e-001
 3.03650000e-002
 -2.06757000e-001
 -3.36914000e-001
 -3.64227000e-001
 -2.79388000e-001
 -1.82343000e-001
 -1.14899000e-001
 -1.40839000e-001
 -3.91541000e-001
 -3.37830000e-001
 -1.92108000e-001
 -1.65405000e-001
 -3.16772000e-001
 -3.28674000e-001
 -3.40424000e-001
 -3.44238000e-001
 -3.24554000e-001
 -2.29492000e-001
 -4.01764000e-001
 -5.34515000e-001
 -4.68597000e-001
 -3.89252000e-001
 -3.14941000e-001
 -4.04968000e-001
 -4.23431000e-001
 -5.88989000e-001
 -3.91541000e-001
 -2.13470000e-001
 -2.63062000e-001
 -3.15704000e-001
 -3.78113000e-001
 -5.32074000e-001
 -4.11072000e-001
 -2.56348000e-001
 -3.21808000e-001
 -5.45197000e-001
 -7.85065000e-001
 -6.11420000e-001
 -4.14581000e-001
 -3.71552000e-001
 -5.74188000e-001
 -6.82373000e-001
 -6.93512000e-001
 -5.01099000e-001
 -3.00751000e-001
 -3.48053000e-001
 -4.20990000e-001
 -5.43365000e-001
 -5.51453000e-001
 -5.21393000e-001
 -2.79999000e-001
 -4.46014000e-001
 -5.69611000e-001
 -6.28967000e-001
 -3.99323000e-001
 -2.61993000e-001
 -3.67279000e-001
 -4.86755000e-001
 -6.41327000e-001
 -5.20172000e-001
 -4.34570000e-001
 -3.72772000e-001
 -5.02472000e-001
 -5.57404000e-001
 -6.52771000e-001
 -5.85937000e-001
 -4.53796000e-001
 -3.25317000e-001
 -5.43671000e-001
 -7.12433000e-001
 -7.00531000e-001
 -5.14832000e-001
 -3.63159000e-001
 -4.16565000e-001
 -4.40063000e-001
 -5.55115000e-001
 -3.51410000e-001
 -2.19116000e-001
 -3.45612000e-001
 -4.26636000e-001
 -5.13458000e-001
 -5.58014000e-001
 -5.61218000e-001
 -3.57361000e-001
 -5.24597000e-001
 -5.02472000e-001
 -5.02319000e-001
 -3.05939000e-001
 -3.01361000e-001
 -2.86713000e-001
 -3.38745000e-001
 -4.52423000e-001
 -5.42450000e-001
 -3.81012000e-001
 -2.47040000e-001
 -4.75311000e-001
 -5.97076000e-001
 -6.73218000e-001
 -5.56793000e-001
 -4.31366000e-001
 -1.65558000e-001
 -4.30450000e-001
 -6.77643000e-001
 -6.24847000e-001
 -4.52881000e-001
 -3.48358000e-001
 -2.94952000e-001
 -3.77808000e-001
 -5.63965000e-001
 -3.85132000e-001
 -2.97241000e-001
 -2.27356000e-001
 -3.45612000e-001
 -4.80957000e-001
 -5.44586000e-001
 -5.49774000e-001
 -4.07867000e-001
 -3.54919000e-001
 -5.98602000e-001
 -7.00378000e-001
 -5.76019000e-001
 -4.40674000e-001
 -3.25775000e-001
 -2.91595000e-001
 -3.80402000e-001
 -5.47180000e-001
 -3.57666000e-001
 -2.34833000e-001
 -3.26691000e-001
 -5.34210000e-001
 -5.87769000e-001
 -5.82886000e-001
 -4.88892000e-001
 -2.48108000e-001
 -4.48151000e-001
 -5.87921000e-001
 -6.79779000e-001
 -5.61829000e-001
 -5.09796000e-001
 -4.04205000e-001
 -4.33044000e-001
 -4.97437000e-001
 -4.81110000e-001
 -3.40424000e-001
 -2.00806000e-001
 -3.46985000e-001
 -4.88129000e-001
 -6.57501000e-001
 -4.96521000e-001
 -4.26483000e-001
 -2.34070000e-001
 -4.23126000e-001
 -7.21436000e-001
 -6.42395000e-001
 -4.28162000e-001
 -3.10364000e-001
 -3.71857000e-001
 -4.78821000e-001
 -7.11365000e-001
 -3.82385000e-001
 -3.39508000e-001
 -4.52728000e-001
 -6.18134000e-001
 -6.31561000e-001
 -6.65131000e-001
 -6.01501000e-001
 -4.35791000e-001
 -3.68347000e-001
 -4.36096000e-001
 -5.67932000e-001
 -3.99780000e-001
 -3.44849000e-001
 -2.16217000e-001
 -1.99432000e-001
 -4.31213000e-001
 -6.05316000e-001
 -3.68958000e-001
 -2.55585000e-001
 -3.51715000e-001
 -5.93414000e-001
 -7.22656000e-001
 -7.03735000e-001
 -6.43158000e-001
 -4.02985000e-001
 -5.10559000e-001
 -5.48553000e-001
 -5.98602000e-001
 -3.90015000e-001
 -3.65753000e-001
 -4.34113000e-001
 -5.73120000e-001
 -7.87506000e-001
 -7.91473000e-001
 -5.55573000e-001
 -2.88696000e-001
 -4.39453000e-001
 -5.48096000e-001
 -6.63300000e-001
 -5.67627000e-001
 -5.60455000e-001
 -4.59290000e-001
 -6.65131000e-001
 -8.44879000e-001
 -8.02155000e-001
 -6.68030000e-001
 -5.41229000e-001
 -5.32532000e-001
 -6.02417000e-001
 -7.69653000e-001
 -6.03180000e-001
 -3.10822000e-001
 -2.99988000e-001
 -4.87366000e-001
 -5.69611000e-001
 -5.76477000e-001
 -6.10046000e-001
 -4.68292000e-001
 -4.95300000e-001
 -6.46515000e-001
 -8.34656000e-001
 -7.00531000e-001
 -5.34515000e-001
 -4.41742000e-001
 -4.36096000e-001
 -4.61731000e-001
 -5.50995000e-001
 -3.78113000e-001
 -1.94855000e-001
 -3.30200000e-001
 -4.63562000e-001
 -6.14166000e-001
 -6.79626000e-001
 -5.85327000e-001
 -1.80511000e-001
 -3.81012000e-001
 -4.74854000e-001
 -4.59747000e-001
 -1.67847000e-001
 -6.85120000e-002
 -9.14000000e-002
 -1.70593000e-001
 -3.25012000e-001
 -1.97906000e-001
 -1.34888000e-001
 -1.31230000e-002
 -4.40980000e-002
 -1.76697000e-001
 -2.77557000e-001
 -2.33917000e-001
 -9.68930000e-002
 8.43810000e-002
 -7.27840000e-002
 -3.16315000e-001
 -2.12860000e-001
 -7.70570000e-002
 -1.27258000e-001
 -1.57623000e-001
 -1.51215000e-001
 -3.32184000e-001
 -4.68440000e-002
 1.70593000e-001
 1.25275000e-001
 -8.33130000e-002
 -1.04828000e-001
 -1.45111000e-001
 -1.52740000e-001
 8.85000000e-003
 -8.33130000e-002
 -1.30920000e-001
 -2.98920000e-001
 -2.27356000e-001
 -1.86005000e-001
 -1.77000000e-002
 -3.79940000e-002
 -7.78200000e-002
 -1.73492000e-001
 -7.49210000e-002
 -5.18800000e-003
 -7.09530000e-002
 -1.56555000e-001
 -2.27051000e-001
 -1.49078000e-001
 -1.19781000e-001
 -4.15040000e-002
 -2.27203000e-001
 -3.15552000e-001
 -3.10516000e-001
 -1.74713000e-001
 -1.61438000e-001
 -1.94550000e-001
 -3.00293000e-001
 -6.26526000e-001
 -6.67572000e-001
 -3.20587000e-001
 -2.28729000e-001
 -4.33350000e-001
 -4.66003000e-001
 -5.97687000e-001
 -5.44128000e-001
 -4.90112000e-001
 -4.59442000e-001
 -6.57501000e-001
 -7.90710000e-001
 -5.92804000e-001
 -5.14984000e-001
 -4.62341000e-001
 -5.54504000e-001
 -6.46210000e-001
 -7.46002000e-001
 -6.13098000e-001
 -6.21643000e-001
 -5.09033000e-001
 -6.67572000e-001
 -7.40204000e-001
 -8.15277000e-001
 -7.19604000e-001
 -4.49066000e-001
 -6.35529000e-001
 -8.10242000e-001
 -8.96759000e-001
 -7.55005000e-001
 -5.46417000e-001
 -4.25110000e-001
 -6.59180000e-001
 -7.83234000e-001
 -6.97784000e-001
 -5.07965000e-001
 -3.72925000e-001
 -5.71442000e-001
 -8.27332000e-001
 -8.27942000e-001
 -6.52771000e-001
 -5.97687000e-001
 -4.66461000e-001
 -7.20215000e-001
 -9.16901000e-001
 -9.14154000e-001
 -7.40967000e-001
 -6.55975000e-001
 -5.68695000e-001
 -6.75812000e-001
 -9.10950000e-001
 -7.62177000e-001
 -5.74036000e-001
 -4.21753000e-001
 -6.27289000e-001
 -7.65228000e-001
 -8.31451000e-001
 -7.14874000e-001
 -5.76935000e-001
 -4.69055000e-001
 -6.81610000e-001
 -7.91626000e-001
 -7.25555000e-001
 -5.47333000e-001
 -4.06036000e-001
 -5.24445000e-001
 -6.76880000e-001
 -9.52148000e-001
 -6.72760000e-001
 -5.77545000e-001
 -7.02362000e-001
 -7.32880000e-001
 -6.98700000e-001
 -6.92291000e-001
 -6.64215000e-001
 -5.48096000e-001
 -7.01599000e-001
 -7.47070000e-001
 -7.91931000e-001
 -6.08215000e-001
 -5.87463000e-001
 -5.27344000e-001
 -5.41229000e-001
 -6.99768000e-001
 -7.10144000e-001
 -6.24847000e-001
 -4.33960000e-001
 -4.97742000e-001
 -5.54962000e-001
 -7.29828000e-001
 -7.16858000e-001
 -6.58569000e-001
 -4.33655000e-001
 -6.33087000e-001
 -8.33893000e-001
 -7.99255000e-001
 -6.06689000e-001
 -4.91333000e-001
 -4.89349000e-001
 -5.26276000e-001
 -7.83234000e-001
 -6.05011000e-001
 -4.58374000e-001
 -3.64838000e-001
 -5.17883000e-001
 -5.68848000e-001
 -3.84064000e-001
 -1.96381000e-001
 8.71280000e-002
 1.05286000e-001
 -7.03430000e-002
 -3.17380000e-002
 4.10156000e-001
 8.23975000e-001
 1.16806000e+000
 1.50833100e+000
 1.82312000e+000
 2.01492300e+000
 2.33581500e+000
 2.58606000e+000
 2.64801000e+000
 2.64328000e+000
 2.64984100e+000
 2.64633200e+000
 2.65609700e+000
 2.64297500e+000
 2.64816300e+000
 2.64419600e+000
 2.64923100e+000
 2.63992300e+000
 2.28042600e+000
 2.00668300e+000
 1.48727400e+000
 9.31702000e-001
 7.18994000e-001
 6.90155000e-001
 5.46112000e-001
 3.59039000e-001
 1.04218000e-001
 -2.01874000e-001
 -2.72064000e-001
 -3.79791000e-001
 -3.52936000e-001
 -5.89142000e-001
 -8.60443000e-001
 -8.53882000e-001
 -7.78503000e-001
 -6.90155000e-001
 -6.97174000e-001
 -9.03625000e-001
 -1.32003800e+000
 -1.28250100e+000
 -1.33071900e+000
 -1.33880600e+000
 -1.53854400e+000
 -1.65908800e+000
 -1.82281500e+000
 -1.68518100e+000
 -1.51779200e+000
 -1.64840700e+000
 -1.85272200e+000
 -1.98211700e+000
 -1.69311500e+000
 -1.50680500e+000
 -1.37451200e+000
 -1.38580300e+000
 -1.38153100e+000
 -1.44439700e+000
 -1.17019700e+000
 -9.81140000e-001
 -1.00250200e+000
 -1.00509600e+000
 -1.00585900e+000
 -8.46405000e-001
 -6.06537000e-001
 -4.05273000e-001
 -5.88989000e-001
 -8.29163000e-001
 -9.07288000e-001
 -6.91681000e-001
 -5.07202000e-001
 -4.32739000e-001
 -5.02319000e-001
 -6.92291000e-001
 -5.30548000e-001
 -4.17328000e-001
 -2.70538000e-001
 -3.95203000e-001
 -5.78766000e-001
 -6.15540000e-001
 -4.89044000e-001
 -3.86047000e-001
 -3.39508000e-001
 -6.21948000e-001
 -7.39899000e-001
 -5.48553000e-001
 -4.00085000e-001
 -3.08990000e-001
 -2.49786000e-001
 -1.67389000e-001
 -5.07660000e-001
 -4.99878000e-001
 -4.03442000e-001
 -2.34070000e-001
 -3.62854000e-001
 -6.23779000e-001
 -5.99213000e-001
 -5.26428000e-001
 -3.10211000e-001
 -3.85742000e-001
 -4.82025000e-001
 -6.26373000e-001
 -3.79944000e-001
 -2.33765000e-001
 -1.60980000e-001
 -2.57568000e-001
 -3.73535000e-001
 -4.43878000e-001
 -2.78320000e-001
 -1.84479000e-001
 -3.00751000e-001
 -4.48456000e-001
 -5.33905000e-001
 -4.99878000e-001
 -5.22308000e-001
 -3.61938000e-001
 -6.17065000e-001
 -7.20520000e-001
 -5.02777000e-001
 -3.83911000e-001
 -2.87323000e-001
 -2.74963000e-001
 -1.95160000e-001
 -3.38898000e-001
 -2.48566000e-001
 -1.34277000e-001
 -1.73340000e-001
 -4.13055000e-001
 -4.86908000e-001
 -5.18341000e-001
 -3.17383000e-001
 -2.44141000e-001
 -1.65253000e-001
 -3.83759000e-001
 -5.20782000e-001
 -4.31366000e-001
 -3.63159000e-001
 -2.69623000e-001
 -2.35138000e-001
 -2.66113000e-001
 -3.90320000e-001
 -2.02637000e-001
 -2.32391000e-001
 -3.29742000e-001
 -3.96729000e-001
 -4.27551000e-001
 -3.84674000e-001
 -3.75214000e-001
 -1.28937000e-001
 -2.89917000e-001
 -4.43878000e-001
 -6.90155000e-001
 -4.89960000e-001
 -4.85229000e-001
 -3.48663000e-001
 -2.85645000e-001
 -4.59442000e-001
 -5.05371000e-001
 -2.03247000e-001
 2.70080000e-002
 -1.40686000e-001
 -4.53339000e-001
 -5.02625000e-001
 -4.29993000e-001
 -2.10876000e-001
 -6.25600000e-003
 -3.03955000e-001
 -4.43268000e-001
 -3.81470000e-001
 -2.15149000e-001
 -2.07062000e-001
 -2.65503000e-001
 -2.72522000e-001
 -3.89709000e-001
 -2.58026000e-001
 -1.13373000e-001
 1.26650000e-002
 -1.03912000e-001
 -2.19879000e-001
 -2.62909000e-001
 -2.00043000e-001
 -1.44196000e-001
 -7.65990000e-002
 -1.66016000e-001
 -2.27814000e-001
 -1.16425000e-001
 -1.06812000e-001
 -1.15204000e-001
 -1.39923000e-001
 -1.61438000e-001
 -2.01874000e-001
 -1.39618000e-001
 -1.03760000e-002
 -3.57060000e-002
 -1.90887000e-001
 -1.80206000e-001
 -1.68457000e-001
 -5.17270000e-002
 1.28784000e-001
 -5.64600000e-003
 -1.80054000e-001
 -2.47650000e-001
 -1.52590000e-002
 6.88170000e-002
 1.45111000e-001
 1.60675000e-001
 9.36890000e-002
 9.99450000e-002
 2.38800000e-001
 4.07715000e-001
 1.92719000e-001
 1.22681000e-001
 -9.07900000e-002
 -6.86650000e-002
 6.39340000e-002
 2.17133000e-001
 5.18800000e-003
 -1.57170000e-002
 1.45721000e-001
 3.15857000e-001
 4.00543000e-001
 3.52325000e-001
 3.40118000e-001
 1.17950000e-001
 2.46429000e-001
 3.90472000e-001
 3.81165000e-001
 2.44141000e-001
 1.90430000e-001
 1.39618000e-001
 2.67639000e-001
 3.94897000e-001
 3.99475000e-001
 2.81677000e-001
 1.40991000e-001
 2.35443000e-001
 3.82690000e-001
 5.65491000e-001
 5.34210000e-001
 4.55475000e-001
 3.19824000e-001
 4.91028000e-001
 5.55115000e-001
 4.84467000e-001
 4.62799000e-001
 4.01306000e-001
 4.24957000e-001
 4.11377000e-001
 7.89948000e-001
 6.02875000e-001
 4.91791000e-001
 3.65448000e-001
 4.71191000e-001
 5.34821000e-001
 7.73468000e-001
 7.27844000e-001
 5.99823000e-001
 6.43921000e-001
 7.88879000e-001
 8.78906000e-001
 7.88879000e-001
 5.52063000e-001
 5.23529000e-001
 6.50635000e-001
 7.59125000e-001
 1.01532000e+000
 6.99615000e-001
 4.71954000e-001
 5.43823000e-001
 7.37915000e-001
 8.71124000e-001
 8.20007000e-001
 7.62177000e-001
 6.38733000e-001
 8.37097000e-001
 9.20563000e-001
 9.63440000e-001
 7.44476000e-001
 6.90765000e-001
 6.18439000e-001
 6.45599000e-001
 8.02002000e-001
 7.68127000e-001
 5.94940000e-001
 4.73328000e-001
 6.82373000e-001
 7.60498000e-001
 7.77893000e-001
 6.93970000e-001
 5.68695000e-001
 3.34015000e-001
 5.56183000e-001
 7.43256000e-001
 6.99463000e-001
 5.57861000e-001
 3.43323000e-001
 2.39563000e-001
 2.69318000e-001
 4.90570000e-001
 2.71301000e-001
 9.21630000e-002
 8.36180000e-002
 3.37067000e-001
 4.42963000e-001
 3.85895000e-001
 2.13165000e-001
 3.61630000e-002
 1.73492000e-001
 2.18201000e-001
 1.22986000e-001
 1.86160000e-002
 7.62900000e-003
 -1.62048000e-001
 -1.98669000e-001
 -1.10016000e-001
 -3.78420000e-002
 -2.83051000e-001
 -4.10767000e-001
 -2.78778000e-001
 -1.85547000e-001
 -1.54266000e-001
 -1.53961000e-001
 -1.77612000e-001
 -4.36096000e-001
 -3.00446000e-001
 -2.94495000e-001
 -2.35138000e-001
 -3.30048000e-001
 -4.15039000e-001
 -5.37109000e-001
 -5.41840000e-001
 -4.25873000e-001
 -4.52576000e-001
 -6.00586000e-001
 -7.58209000e-001
 -4.54712000e-001
 -3.86047000e-001
 -3.47748000e-001
 -3.83148000e-001
 -5.43213000e-001
 -6.09894000e-001
 -4.03748000e-001
 -3.23639000e-001
 -4.44794000e-001
 -5.21393000e-001
 -7.46613000e-001
 -8.48999000e-001
 -7.01141000e-001
 -4.53339000e-001
 -6.43768000e-001
 -7.49817000e-001
 -7.75604000e-001
 -4.42200000e-001
 -3.73077000e-001
 -4.36859000e-001
 -5.04303000e-001
 -7.16553000e-001
 -6.86035000e-001
 -5.58777000e-001
 -3.73993000e-001
 -4.85687000e-001
 -5.73883000e-001
 -6.61469000e-001
 -5.92957000e-001
 -4.46625000e-001
 -5.83649000e-001
 -8.64716000e-001
 -9.92432000e-001
 -6.60248000e-001
 -5.60150000e-001
 -5.05981000e-001
 -5.50842000e-001
 -6.27441000e-001
 -8.86993000e-001
 -7.36847000e-001
 -5.68848000e-001
 -5.04608000e-001
 -5.72510000e-001
 -6.24695000e-001
 -6.94580000e-001
 -6.57043000e-001
 -4.80042000e-001
 -7.08618000e-001
 -9.10187000e-001
 -9.23309000e-001
 -6.64368000e-001
 -5.55878000e-001
 -4.94995000e-001
 -5.24750000e-001
 -6.36139000e-001
 -6.63452000e-001
 -4.27399000e-001
 -3.91846000e-001
 -5.30243000e-001
 -6.41632000e-001
 -7.56378000e-001
 -6.94885000e-001
 -6.27899000e-001
 -4.24652000e-001
 -5.88837000e-001
 -7.30133000e-001
 -7.73468000e-001
 -6.95953000e-001
 -6.33698000e-001
 -5.38330000e-001
 -6.21643000e-001
 -8.95386000e-001
 -6.74286000e-001
 -4.48151000e-001
 -3.94440000e-001
 -5.85785000e-001
 -6.46820000e-001
 -7.91168000e-001
 -7.29675000e-001
 -5.85937000e-001
 -4.93927000e-001
 -7.46918000e-001
 -8.96759000e-001
 -6.68640000e-001
 -5.97229000e-001
 -4.56696000e-001
 -4.73785000e-001
 -5.13306000e-001
 -8.09784000e-001
 -5.80444000e-001
 -4.53949000e-001
 -4.75311000e-001
 -6.34155000e-001
 -7.57294000e-001
 -6.79016000e-001
 -5.23682000e-001
 -2.82288000e-001
 -5.34058000e-001
 -6.59485000e-001
 -7.49054000e-001
 -5.82581000e-001
 -5.45197000e-001
 -5.35126000e-001
 -6.64978000e-001
 -7.92542000e-001
 -8.45184000e-001
 -5.84259000e-001
 -4.41589000e-001
 -6.37665000e-001
 -7.35168000e-001
 -8.37097000e-001
 -6.73828000e-001
 -5.87921000e-001
 -4.11072000e-001
 -5.43365000e-001
 -7.07092000e-001
 -7.02972000e-001
 -5.70221000e-001
 -4.21906000e-001
 -4.09851000e-001
 -5.09033000e-001
 -7.98950000e-001
 -6.79016000e-001
 -5.54962000e-001
 -4.11682000e-001
 -5.38635000e-001
 -6.18439000e-001
 -6.83441000e-001
 -6.20728000e-001
 -5.15137000e-001
 -5.74646000e-001
 -6.39038000e-001
 -8.55560000e-001
 -7.70111000e-001
 -5.18341000e-001
 -4.58374000e-001
 -5.49469000e-001
 -6.03485000e-001
 -6.66046000e-001
 -4.72717000e-001
 -4.31366000e-001
 -4.48914000e-001
 -5.63660000e-001
 -6.64368000e-001
 -7.92236000e-001
 -8.05969000e-001
 -5.08881000e-001
 -7.43256000e-001
 -8.32825000e-001
 -1.01379400e+000
 -7.94830000e-001
 -6.57349000e-001
 -5.34821000e-001
 -6.19354000e-001
 -6.97174000e-001
 -6.91833000e-001
 -5.62286000e-001
 -3.18451000e-001
 -5.49622000e-001
 -5.45654000e-001
 -7.30286000e-001
 -7.39288000e-001
 -6.88324000e-001
 -5.43518000e-001
 -7.15790000e-001
 -8.34503000e-001
 -7.50580000e-001
 -5.42450000e-001
 -5.47638000e-001
 -5.59540000e-001
 -6.71234000e-001
 -8.86536000e-001
 -6.71082000e-001
 -4.97894000e-001
 -4.64630000e-001
 -6.38428000e-001
 -7.53937000e-001
 -7.44629000e-001
 -5.63202000e-001
 -4.62952000e-001
 -5.32837000e-001
 -7.60498000e-001
 -8.95996000e-001
 -7.06635000e-001
 -5.38940000e-001
 -4.16107000e-001
 -6.42090000e-001
 -6.98242000e-001
 -8.70667000e-001
 -7.11060000e-001
 -5.46417000e-001
 -6.33698000e-001
 -7.64771000e-001
 -8.85773000e-001
 -8.38928000e-001
 -8.36487000e-001
 -6.73981000e-001
 -7.73163000e-001
 -8.30231000e-001
 -9.18884000e-001
 -7.72858000e-001
 -7.79572000e-001
 -7.14111000e-001
 -7.33490000e-001
 -8.91418000e-001
 -8.45337000e-001
 -6.87714000e-001
 -6.18439000e-001
 -6.88171000e-001
 -7.69653000e-001
 -9.63593000e-001
 -8.55560000e-001
 -6.92902000e-001
 -4.90417000e-001
 -7.18994000e-001
 -8.61206000e-001
 -8.10089000e-001
 -7.79572000e-001
 -6.81305000e-001
 -6.95343000e-001
 -8.16193000e-001
 -9.78546000e-001
 -8.41675000e-001
 -6.47888000e-001
 -6.35834000e-001
 -7.62482000e-001
 -8.13751000e-001
 -8.47321000e-001
 -7.54547000e-001
 -6.04095000e-001
 -6.22101000e-001
 -6.51093000e-001
 -8.36029000e-001
 -7.56836000e-001
 -5.74036000e-001
 -4.55933000e-001
 -5.03387000e-001
 -5.15900000e-001
 -7.50885000e-001
 -5.92957000e-001
 -4.54865000e-001
 -4.33044000e-001
 -4.78821000e-001
 -6.57043000e-001
 -5.81055000e-001
 -4.79584000e-001
 -1.49689000e-001
 -3.09753000e-001
 -4.40063000e-001
 -5.26581000e-001
 -3.76892000e-001
 -2.74658000e-001
 -2.83661000e-001
 -3.23639000e-001
 -4.01154000e-001
 -3.76282000e-001
 -1.94092000e-001
 -4.04360000e-002
 -2.04010000e-001
 -3.31421000e-001
 -5.00031000e-001
 -4.69513000e-001
 -4.23126000e-001
 -3.56140000e-001
 -4.39148000e-001
 -5.83038000e-001
 -5.63965000e-001
 -3.92914000e-001
 -2.94800000e-001
 -2.71301000e-001
 -3.73077000e-001
 -5.14984000e-001
 -2.11945000e-001
 -1.13678000e-001
 -7.62940000e-002
 -2.13165000e-001
 -2.92511000e-001
 -2.84271000e-001
 -3.47748000e-001
 -2.40479000e-001
 -3.28369000e-001
 -4.19464000e-001
 -5.07202000e-001
 -3.66974000e-001
 -2.79236000e-001
 -2.40173000e-001
 -3.34473000e-001
 -4.15802000e-001
 -5.54657000e-001
 -3.60413000e-001
 -3.63770000e-001
 -5.33447000e-001
 -5.62439000e-001
 -6.47278000e-001
 -5.97534000e-001
 -5.70526000e-001
 -3.34320000e-001
 -4.99725000e-001
 -8.17261000e-001
 -8.90656000e-001
 -6.37054000e-001
 -5.69458000e-001
 -5.26276000e-001
 -6.34003000e-001
 -8.60748000e-001
 -6.43005000e-001
 -5.80444000e-001
 -5.90973000e-001
 -7.87964000e-001
 -8.65784000e-001
 -9.24377000e-001
 -8.94623000e-001
 -8.74634000e-001
 -8.36334000e-001
 -9.60541000e-001
 -1.12548800e+000
 -1.03546100e+000
 -8.27637000e-001
 -8.05054000e-001
 -9.52759000e-001
 -1.03820800e+000
 -1.12838700e+000
 -9.49554000e-001
 -7.80640000e-001
 -8.32520000e-001
 -8.81348000e-001
 -1.02294900e+000
 -1.02447500e+000
 -1.09726000e+000
 -9.31854000e-001
 -1.02844200e+000
 -1.10992400e+000
 -1.21139500e+000
 -1.08261100e+000
 -9.63287000e-001
 -8.21838000e-001
 -8.82416000e-001
 -1.19201700e+000
 -1.26953100e+000
 -1.03454600e+000
 -8.72192000e-001
 -9.72137000e-001
 -1.08200100e+000
 -1.13388100e+000
 -1.06185900e+000
 -9.77325000e-001
 -8.65326000e-001
 -1.05606100e+000
 -1.21643100e+000
 -1.23672500e+000
 -1.05682400e+000
 -9.66492000e-001
 -9.38416000e-001
 -1.04354900e+000
 -1.23367300e+000
 -1.14669800e+000
 -9.18121000e-001
 -7.76672000e-001
 -9.91364000e-001
 -1.10748300e+000
 -1.09268200e+000
 -1.00158700e+000
 -8.41827000e-001
 -8.57697000e-001
 -1.04476900e+000
 -1.17507900e+000
 -9.64355000e-001
 -9.15680000e-001
 -1.03515600e+000
 -1.12731900e+000
 -1.22726400e+000
 -1.34063700e+000
 -1.02310200e+000
 -8.23822000e-001
 -8.23212000e-001
 -9.13696000e-001
 -1.09466600e+000
 -1.02676400e+000
 -1.02706900e+000
 -7.62787000e-001
 -9.47266000e-001
 -1.17675800e+000
 -1.26815800e+000
 -1.06048600e+000
 -9.46198000e-001
 -8.65631000e-001
 -9.92889000e-001
 -1.09817500e+000
 -1.00265500e+000
 -8.41980000e-001
 -6.85577000e-001
 -8.14362000e-001
 -9.26666000e-001
 -1.17340100e+000
 -1.10336300e+000
 -9.61304000e-001
 -7.96661000e-001
 -1.10992400e+000
 -1.28280600e+000
 -1.23565700e+000
 -1.02676400e+000
 -9.66339000e-001
 -9.15070000e-001
 -9.97162000e-001
 -1.06491100e+000
 -7.03583000e-001
 -6.32477000e-001
 -5.18646000e-001
 -5.60608000e-001
 -3.93524000e-001
 -2.96021000e-001
 -8.54500000e-003
 4.17480000e-001
 7.29828000e-001
 9.38263000e-001
 1.20544400e+000
 1.63894700e+000
 1.98135400e+000
 2.14599600e+000
 2.22473100e+000
 2.32681300e+000
 2.20626800e+000
 2.51556400e+000
 2.64434800e+000
 2.64938400e+000
 2.65335100e+000
 2.65045200e+000
 2.60665900e+000
 2.27951000e+000
 2.00958300e+000
 1.30035400e+000
 7.29218000e-001
 4.56848000e-001
 4.73785000e-001
 4.28314000e-001
 4.85992000e-001
 2.65808000e-001
 -1.11237000e-001
 -1.96381000e-001
 -1.69067000e-001
 -8.07190000e-002
 -1.82800000e-001
 -3.50342000e-001
 -6.25458000e-001
 -6.66199000e-001
 -5.49316000e-001
 -4.42810000e-001
 -8.01697000e-001
 -1.12426800e+000
 -1.21551500e+000
 -1.26632700e+000
 -1.32156400e+000
 -1.49322500e+000
 -1.78344700e+000
 -2.05596900e+000
 -1.87744100e+000
 -1.82724000e+000
 -1.77612300e+000
 -1.95373500e+000
 -2.04940800e+000
 -2.00119000e+000
 -1.89910900e+000
 -1.69632000e+000
 -1.73172000e+000
 -1.76849400e+000
 -1.82479900e+000
 -1.67266800e+000
 -1.45858800e+000
 -1.23672500e+000
 -1.29531900e+000
 -1.30889900e+000
 -1.37069700e+000
 -1.01882900e+000
 -8.07800000e-001
 -8.86536000e-001
 -9.72748000e-001
 -1.00952100e+000
 -8.79974000e-001
 -8.38470000e-001
 -6.11725000e-001
 -8.80890000e-001
 -1.01257300e+000
 -9.35669000e-001
 -7.42340000e-001
 -7.06635000e-001
 -7.26776000e-001
 -8.16803000e-001
 -8.74786000e-001
 -8.02002000e-001
 -6.10199000e-001
 -5.14526000e-001
 -6.29883000e-001
 -7.51953000e-001
 -8.01544000e-001
 -7.22351000e-001
 -6.81610000e-001
 -5.75409000e-001
 -7.19299000e-001
 -9.19952000e-001
 -7.17621000e-001
 -5.44891000e-001
 -5.00336000e-001
 -5.87463000e-001
 -6.66962000e-001
 -9.36737000e-001
 -6.51245000e-001
 -5.70374000e-001
 -5.23529000e-001
 -6.15845000e-001
 -7.00378000e-001
 -7.56226000e-001
 -6.65436000e-001
 -4.92249000e-001
 -6.60248000e-001
 -8.85468000e-001
 -8.77380000e-001
 -6.71234000e-001
 -5.27039000e-001
 -3.83759000e-001
 -4.80194000e-001
 -6.99005000e-001
 -9.22394000e-001
 -7.19299000e-001
 -5.22461000e-001
 -5.55725000e-001
 -6.25610000e-001
 -7.47223000e-001
 -7.60193000e-001
 -7.78961000e-001
 -5.28107000e-001
 -6.59943000e-001
 -7.64160000e-001
 -7.22656000e-001
 -5.43976000e-001
 -4.24500000e-001
 -3.92609000e-001
 -5.08270000e-001
 -6.58417000e-001
 -6.88477000e-001
 -5.08575000e-001
 -3.20587000e-001
 -4.89044000e-001
 -6.34460000e-001
 -7.00073000e-001
 -6.04248000e-001
 -5.80902000e-001
 -5.12543000e-001
 -6.26678000e-001
 -7.08466000e-001
 -6.53381000e-001
 -4.87671000e-001
 -4.28467000e-001
 -4.39911000e-001
 -5.66559000e-001
 -9.03625000e-001
 -6.22711000e-001
 -3.93219000e-001
 -3.20740000e-001
 -5.14526000e-001
 -5.81665000e-001
 -6.21338000e-001
 -5.63202000e-001
 -3.50800000e-001
 -4.82635000e-001
 -6.34613000e-001
 -6.88171000e-001
 -4.75006000e-001
 -4.23431000e-001
 -3.99323000e-001
 -3.69415000e-001
 -4.86450000e-001
 -6.30646000e-001
 -4.53186000e-001
 -2.84271000e-001
 -3.54156000e-001
 -4.66461000e-001
 -5.28564000e-001
 -5.62897000e-001
 -6.19507000e-001
 -3.97949000e-001
 -5.43060000e-001
 -5.67169000e-001
 -4.47083000e-001
 -2.98767000e-001
 -2.08588000e-001
 -2.90222000e-001
 -4.22516000e-001
 -5.30853000e-001
 -3.79333000e-001
 -2.85492000e-001
 -2.07062000e-001
 -3.83453000e-001
 -4.05426000e-001
 -5.59387000e-001
 -4.34418000e-001
 -3.08533000e-001
 -2.67792000e-001
 -4.70276000e-001
 -6.52924000e-001
 -5.11169000e-001
 -3.24402000e-001
 -2.13776000e-001
 -2.29187000e-001
 -2.56348000e-001
 -4.15039000e-001
 -1.85394000e-001
 -7.78200000e-002
 -1.67236000e-001
 -3.45612000e-001
 -3.68652000e-001
 -3.86505000e-001
 -3.80859000e-001
 -2.75726000e-001
 -4.21143000e-001
 -4.16107000e-001
 -4.20380000e-001
 -2.80609000e-001
 -2.37885000e-001
 -1.41907000e-001
 -8.37710000e-002
 -3.05634000e-001
 -3.76740000e-001
 -2.03705000e-001
 -3.98250000e-002
 -1.70593000e-001
 -2.70844000e-001
 -3.49121000e-001
 -2.45972000e-001
 -1.87836000e-001
 4.77600000e-002
 -9.70460000e-002
 -2.71759000e-001
 -2.23541000e-001
 -1.11084000e-001
 9.58250000e-002
 1.08337000e-001
 -3.50950000e-002
 -2.71454000e-001
 -2.48720000e-002
 1.39008000e-001
 1.58234000e-001
 -2.80760000e-002
 -8.31600000e-002
 -9.36890000e-002
 1.17798000e-001
 3.17383000e-001
 2.20337000e-001
 2.10570000e-002
 -1.26953000e-001
 5.23380000e-002
 2.62299000e-001
 4.10614000e-001
 3.17078000e-001
 1.68610000e-001
 -3.43320000e-002
 2.22626000e-001
 4.17938000e-001
 2.98157000e-001
 1.95007000e-001
 1.24817000e-001
 8.43810000e-002
 2.13928000e-001
 4.47540000e-001
 2.99988000e-001
 2.77100000e-001
 3.21198000e-001
 4.33807000e-001
 4.56696000e-001
 5.07202000e-001
 4.86755000e-001
 1.80206000e-001
 1.74255000e-001
 4.56696000e-001
 5.32227000e-001
 4.44641000e-001
 3.86353000e-001
 2.91443000e-001
 3.00751000e-001
 3.70789000e-001
 5.53436000e-001
 4.71344000e-001
 1.85547000e-001
 2.25983000e-001
 4.51965000e-001
 5.22919000e-001
 4.74243000e-001
 3.59955000e-001
 2.10266000e-001
 3.98712000e-001
 5.46112000e-001
 5.63049000e-001
 3.82690000e-001
 3.01361000e-001
 2.77557000e-001
 4.48151000e-001
 4.22821000e-001
 3.62091000e-001
 1.02234000e-001
 -1.83110000e-002
 2.08435000e-001
 3.97491000e-001
 6.17828000e-001
 5.32837000e-001
 2.46124000e-001
 2.19730000e-002
 2.29645000e-001
 3.32489000e-001
 2.32086000e-001
 8.51440000e-002
 -3.67740000e-002
 -4.85230000e-002
 -5.00490000e-002
 7.73620000e-002
 -9.67410000e-002
 -1.86615000e-001
 -1.90735000e-001
 -1.67850000e-002
 -1.37300000e-003
 -9.16000000e-004
 -7.63000000e-004
 -1.72424000e-001
 -1.74561000e-001
 -2.27051000e-001
 -1.33514000e-001
 -2.41394000e-001
 -4.36401000e-001
 -5.89600000e-001
 -4.88129000e-001
 -3.48969000e-001
 -2.20795000e-001
 -3.77655000e-001
 -5.45197000e-001
 -5.76477000e-001
 -4.22363000e-001
 -2.82288000e-001
 -3.44086000e-001
 -4.00391000e-001
 -6.68182000e-001
 -5.64880000e-001
 -5.28259000e-001
 -5.25055000e-001
 -7.14264000e-001
 -7.69653000e-001
 -7.54089000e-001
 -6.43158000e-001
 -5.58624000e-001
 -6.49261000e-001
 -6.94885000e-001
 -8.81042000e-001
 -8.15277000e-001
 -6.74896000e-001
 -5.05219000e-001
 -6.81915000e-001
 -7.94983000e-001
 -9.17816000e-001
 -7.00378000e-001
 -4.73938000e-001
 -5.79376000e-001
 -8.22144000e-001
 -9.02252000e-001
 -7.66754000e-001
 -6.78253000e-001
 -5.03235000e-001
 -7.18536000e-001
 -8.31757000e-001
 -8.17566000e-001
 -6.35223000e-001
 -5.81512000e-001
 -6.18134000e-001
 -6.72455000e-001
 -9.36584000e-001
 -8.44574000e-001
 -6.70166000e-001
 -5.93262000e-001
 -7.46765000e-001
 -7.41882000e-001
 -8.34198000e-001
 -8.43353000e-001
 -7.35626000e-001
 -5.72968000e-001
 -7.64618000e-001
 -1.01394700e+000
 -8.29468000e-001
 -7.04956000e-001
 -6.06384000e-001
 -6.87408000e-001
 -6.68335000e-001
 -9.29413000e-001
 -6.75354000e-001
 -5.36499000e-001
 -6.51398000e-001
 -8.62579000e-001
 -9.29108000e-001
 -8.11310000e-001
 -7.06787000e-001
 -4.63104000e-001
 -5.72815000e-001
 -7.37610000e-001
 -8.68683000e-001
 -7.58209000e-001
 -7.38983000e-001
 -7.25250000e-001
 -7.67975000e-001
 -8.83636000e-001
 -8.22754000e-001
 -6.53687000e-001
 -6.69556000e-001
 -7.24640000e-001
 -8.00476000e-001
 -8.66547000e-001
 -8.06580000e-001
 -8.26111000e-001
 -6.97327000e-001
 -8.47473000e-001
 -8.61969000e-001
 -9.00574000e-001
 -8.11615000e-001
 -7.37152000e-001
 -6.45599000e-001
 -7.51648000e-001
 -9.95941000e-001
 -8.47931000e-001
 -7.06940000e-001
 -5.87158000e-001
 -7.38220000e-001
 -8.57391000e-001
 -9.32007000e-001
 -8.99506000e-001
 -7.33185000e-001
 -6.11877000e-001
 -9.08203000e-001
 -9.67102000e-001
 -8.92639000e-001
 -7.51343000e-001
 -6.89850000e-001
 -7.63702000e-001
 -7.59125000e-001
 -9.30634000e-001
 -6.67267000e-001
 -5.70526000e-001
 -6.16760000e-001
 -7.89948000e-001
 -9.04694000e-001
 -8.94165000e-001
 -7.86743000e-001
 -6.38580000e-001
 -7.02362000e-001
 -8.05817000e-001
 -8.86383000e-001
 -7.54395000e-001
 -6.91833000e-001
 -5.91278000e-001
 -7.70111000e-001
 -9.06830000e-001
 -9.53674000e-001
 -7.78809000e-001
 -6.30951000e-001
 -7.03125000e-001
 -7.85217000e-001
 -9.35822000e-001
 -8.53119000e-001
 -8.46100000e-001
 -7.40814000e-001
 -8.81958000e-001
 -1.02279700e+000
 -9.99908000e-001
 -8.48083000e-001
 -7.58209000e-001
 -6.94427000e-001
 -7.60498000e-001
 -8.67310000e-001
 -7.39594000e-001
 -7.31354000e-001
 -7.31049000e-001
 -8.09784000e-001
 -7.61261000e-001
 -8.42133000e-001
 -7.77588000e-001
 -7.05109000e-001
 -6.91986000e-001
 -7.97882000e-001
 -8.96606000e-001
 -7.51801000e-001
 -6.03638000e-001
 -5.51758000e-001
 -7.14722000e-001
 -7.38831000e-001
 -8.86078000e-001
 -6.45142000e-001
 -4.44641000e-001
 -5.01099000e-001
 -7.55310000e-001
 -9.24835000e-001
 -8.43658000e-001
 -7.51343000e-001
 -4.84924000e-001
 -7.34711000e-001
 -1.02600100e+000
 -1.19964600e+000
 -1.05743400e+000
 -8.17261000e-001
 -6.47125000e-001
 -7.45239000e-001
 -9.27429000e-001
 -9.97772000e-001
 -8.80432000e-001
 -7.07703000e-001
 -7.29675000e-001
 -6.00739000e-001
 -6.88324000e-001
 -7.51190000e-001
 -6.44684000e-001
 -4.84161000e-001
 -7.49817000e-001
 -1.02203400e+000
 -9.14612000e-001
 -7.87659000e-001
 -7.17621000e-001
 -6.92139000e-001
 -6.93054000e-001
 -9.55658000e-001
 -8.27332000e-001
 -8.12531000e-001
 -7.12128000e-001
 -8.56171000e-001
 -9.01947000e-001
 -9.34448000e-001
 -9.41162000e-001
 -7.38831000e-001
 -5.67780000e-001
 -6.84814000e-001
 -8.63800000e-001
 -7.86438000e-001
 -6.91681000e-001
 -4.75006000e-001
 -5.01556000e-001
 -5.80597000e-001
 -6.90460000e-001
 -4.53186000e-001
 -2.93732000e-001
 -4.52728000e-001
 -6.27289000e-001
 -8.16650000e-001
 -7.47223000e-001
 -4.64172000e-001
 -2.51617000e-001
 -4.60052000e-001
 -5.68848000e-001
 -5.56183000e-001
 -4.09088000e-001
 -3.54767000e-001
 -3.28217000e-001
 -4.01154000e-001
 -5.42908000e-001
 -4.91486000e-001
 -3.52478000e-001
 -1.21307000e-001
 -2.67792000e-001
 -4.68140000e-001
 -6.52466000e-001
 -5.76324000e-001
 -5.01404000e-001
 -2.63824000e-001
 -6.11420000e-001
 -7.35779000e-001
 -5.71594000e-001
 -3.69415000e-001
 -2.42157000e-001
 -1.42975000e-001
 -2.60010000e-001
 -5.27802000e-001
 -3.36456000e-001
 -2.71454000e-001
 -3.41797000e-001
 -4.97589000e-001
 -5.07660000e-001
 -4.84467000e-001
 -4.86603000e-001
 -3.03802000e-001
 -2.35291000e-001
 -3.93524000e-001
 -6.15997000e-001
 -5.16968000e-001
 -3.80249000e-001
 -3.18756000e-001
 -4.21448000e-001
 -5.31769000e-001
 -6.57043000e-001
 -5.88531000e-001
 -4.89655000e-001
 -6.21185000e-001
 -7.44324000e-001
 -8.48999000e-001
 -8.31604000e-001
 -8.28400000e-001
 -6.39954000e-001
 -7.32574000e-001
 -9.72748000e-001
 -1.10885600e+000
 -9.12628000e-001
 -8.47473000e-001
 -8.06732000e-001
 -9.17816000e-001
 -1.09664900e+000
 -1.06094400e+000
 -9.34296000e-001
 -8.82721000e-001
 -9.90906000e-001
 -1.00219700e+000
 -1.12731900e+000
 -1.11450200e+000
 -1.03729200e+000
 -8.63800000e-001
 -1.02264400e+000
 -1.14074700e+000
 -1.04965200e+000
 -9.82361000e-001
 -8.68835000e-001
 -9.94415000e-001
 -9.96399000e-001
 -1.12091100e+000
 -9.93805000e-001
 -9.05914000e-001
 -9.36737000e-001
 -1.05209400e+000
 -1.19247400e+000
 -1.34246800e+000
 -1.18515000e+000
 -9.51691000e-001
 -1.04415900e+000
 -1.23123200e+000
 -1.38458300e+000
 -1.17843600e+000
 -1.01577800e+000
 -9.26514000e-001
 -1.03912400e+000
 -1.18499800e+000
 -1.24649000e+000
 -1.01135300e+000
 -8.41370000e-001
 -8.72192000e-001
 -9.51080000e-001
 -1.11969000e+000
 -1.09985400e+000
 -1.03378300e+000
 -7.68890000e-001
 -1.07727100e+000
 -1.32354700e+000
 -1.34429900e+000
 -1.13006600e+000
 -1.03698700e+000
 -9.78394000e-001
 -1.02920500e+000
 -1.22482300e+000
 -1.01455700e+000
 -8.28705000e-001
 -7.85217000e-001
 -1.01028400e+000
 -1.04446400e+000
 -1.13876300e+000
 -1.00006100e+000
 -9.23615000e-001
 -9.77173000e-001
 -1.22253400e+000
 -1.23306300e+000
 -1.02081300e+000
 -1.05209400e+000
 -8.57697000e-001
 -8.95996000e-001
 -9.79767000e-001
 -1.06216400e+000
 -9.07135000e-001
 -8.20160000e-001
 -7.68433000e-001
 -9.62982000e-001
 -1.09314000e+000
 -1.21475200e+000
 -1.19522100e+000
 -9.85260000e-001
 -9.86938000e-001
 -1.06094400e+000
 -1.16760300e+000
 -1.00082400e+000
 -9.63745000e-001
 -9.41925000e-001
 -1.04324300e+000
 -1.05133100e+000
 -9.62219000e-001
 -8.16040000e-001
 -7.57141000e-001
 -9.04694000e-001
 -9.94110000e-001
 -1.05911300e+000
 -1.01379400e+000
 -9.15375000e-001
 -6.71387000e-001
 -8.50372000e-001
 -9.83887000e-001
 -9.14917000e-001
 -6.10809000e-001
 -3.72620000e-001
 -1.67999000e-001
 -2.06909000e-001
 -3.23944000e-001
 1.21765000e-001
 5.20020000e-001
 9.65881000e-001
 1.20788600e+000
 1.44973800e+000
 1.65023800e+000
 1.89346300e+000
 2.19467200e+000
 2.38266000e+000
 2.25402800e+000
 2.31124900e+000
 2.60253900e+000
 2.64679000e+000
 2.65167200e+000
 2.64511100e+000
 2.65152000e+000
 2.64892600e+000
 2.47711200e+000
 2.12753300e+000
 1.59256000e+000
 1.01043700e+000
 5.46417000e-001
 3.02734000e-001
 2.14539000e-001
 3.63007000e-001
 1.42670000e-001
 -1.45721000e-001
 -3.14178000e-001
 -1.74255000e-001
 -1.78528000e-001
 -2.40173000e-001
 -4.33655000e-001
 -5.63354000e-001
 -7.44781000e-001
 -6.42853000e-001
 -6.39954000e-001
 -7.67212000e-001
 -1.00723300e+000
 -1.42761200e+000
 -1.63940400e+000
 -1.74667400e+000
 -1.66305500e+000
 -1.87011700e+000
 -2.03384400e+000
 -2.00485200e+000
 -1.72653200e+000
 -1.64978000e+000
 -1.80801400e+000
 -2.04101600e+000
 -2.18627900e+000
 -1.97464000e+000
 -1.80114700e+000
 -1.62002600e+000
 -1.70974700e+000
 -1.72805800e+000
 -1.75476100e+000
 -1.60141000e+000
 -1.32766700e+000
 -1.19369500e+000
 -1.38229400e+000
 -1.49612400e+000
 -1.22375500e+000
 -1.00723300e+000
 -7.67822000e-001
 -7.74689000e-001
 -8.37250000e-001
 -1.02539100e+000
 -7.65228000e-001
 -6.33698000e-001
 -6.97174000e-001
 -7.45544000e-001
 -8.63800000e-001
 -9.07288000e-001
 -8.43811000e-001
 -6.10504000e-001
 -7.35016000e-001
 -8.79059000e-001
 -8.97980000e-001
 -7.23724000e-001
 -6.12183000e-001
 -6.06537000e-001
 -7.17163000e-001
 -8.23669000e-001
 -7.91626000e-001
 -6.14777000e-001
 -4.69208000e-001
 -5.90363000e-001
 -7.05566000e-001
 -8.63647000e-001
 -8.15582000e-001
 -6.94275000e-001
 -5.88226000e-001
 -7.69806000e-001
 -8.96759000e-001
 -8.32214000e-001
 -5.90515000e-001
 -5.94025000e-001
 -5.65186000e-001
 -6.57196000e-001
 -7.84302000e-001
 -5.38483000e-001
 -4.49524000e-001
 -3.99628000e-001
 -6.53687000e-001
 -6.79169000e-001
 -7.39441000e-001
 -7.66144000e-001
 -5.89142000e-001
 -5.05829000e-001
 -6.70929000e-001
 -8.43353000e-001
 -7.57294000e-001
 -6.68488000e-001
 -5.83496000e-001
 -6.09741000e-001
 -6.55823000e-001
 -7.82776000e-001
 -4.89349000e-001
 -4.00696000e-001
 -5.42755000e-001
 -6.75049000e-001
 -7.41425000e-001
 -6.96869000e-001
 -6.05469000e-001
 -3.36456000e-001
 -5.66711000e-001
 -7.45544000e-001
 -7.17010000e-001
 -5.46265000e-001
 -5.25208000e-001
 -4.83551000e-001
 -4.41284000e-001
 -5.93719000e-001
 -5.09644000e-001
 -4.45404000e-001
 -4.44031000e-001
 -6.57959000e-001
 -7.42645000e-001
 -8.79059000e-001
 -7.48901000e-001
 -5.85632000e-001
 -4.40063000e-001
 -6.57501000e-001
 -7.83234000e-001
 -6.29578000e-001
 -3.91998000e-001
 -1.71814000e-001
 -2.49786000e-001
 -4.38843000e-001
 -6.65131000e-001
 -4.88892000e-001
 -4.01306000e-001
 -3.49884000e-001
 -4.91791000e-001
 -5.79987000e-001
 -6.35681000e-001
 -5.45349000e-001
 -4.63867000e-001
 -5.59082000e-001
 -6.73676000e-001
 -6.40106000e-001
 -4.09851000e-001
 -3.23334000e-001
 -2.83051000e-001
 -3.63770000e-001
 -4.37164000e-001
 -5.92651000e-001
 -4.85077000e-001
 -3.37677000e-001
 -3.53241000e-001
 -4.90112000e-001
 -6.08368000e-001
 -5.72815000e-001
 -3.66974000e-001
 -1.55945000e-001
 -3.88794000e-001
 -5.76477000e-001
 -5.20325000e-001
 -2.85492000e-001
 -2.14233000e-001
 -1.82648000e-001
 -2.47803000e-001
 -4.97437000e-001
 -3.96576000e-001
 -3.13721000e-001
 -1.96228000e-001
 -1.98059000e-001
 -3.15247000e-001
 -5.34058000e-001
 -4.26941000e-001
 -2.64435000e-001
 -1.57623000e-001
 -3.60565000e-001
 -4.77905000e-001
 -4.17328000e-001
 -2.12860000e-001
 -3.86050000e-002
 -6.79020000e-002
 -1.51520000e-001
 -3.84064000e-001
 -1.93481000e-001
 -7.98030000e-002
 -4.85230000e-002
 -2.77252000e-001
 -4.14276000e-001
 -3.63159000e-001
 -1.32751000e-001
 1.06506000e-001
 -4.16560000e-002
 -3.26538000e-001
 -3.39813000e-001
 -1.29700000e-001
 -9.52150000e-002
 3.05200000e-003
 -6.45450000e-002
 -2.88849000e-001
 -3.11127000e-001
 -7.58360000e-002
 1.02692000e-001
 4.73020000e-002
 -6.91220000e-002
 -1.33209000e-001
 -4.02830000e-002
 -2.59400000e-003
 1.97449000e-001
 6.94270000e-002
 2.76180000e-002
 5.20320000e-002
 2.62604000e-001
 2.86713000e-001
 2.29187000e-001
 1.87683000e-001
 -1.63270000e-002
 1.66931000e-001
 4.15344000e-001
 5.62592000e-001
 3.45612000e-001
 3.20892000e-001
 2.29797000e-001
 3.12958000e-001
 3.76434000e-001
 4.22516000e-001
 2.39410000e-001
 8.13290000e-002
 1.92871000e-001
 2.94189000e-001
 4.94843000e-001
 5.22003000e-001
 5.43518000e-001
 2.42767000e-001
 4.40369000e-001
 6.05774000e-001
 5.22614000e-001
 3.83911000e-001
 3.20740000e-001
 3.95660000e-001
 4.11072000e-001
 6.42700000e-001
 4.38080000e-001
 3.57819000e-001
 3.36761000e-001
 4.79889000e-001
 5.48706000e-001
 6.43463000e-001
 5.68390000e-001
 4.06799000e-001
 3.86963000e-001
 5.16510000e-001
 6.18896000e-001
 4.99573000e-001
 5.19409000e-001
 4.47845000e-001
 5.32837000e-001
 5.42297000e-001
 5.95398000e-001
 5.04303000e-001
 5.35431000e-001
 6.71234000e-001
 7.92084000e-001
 6.99463000e-001
 6.02112000e-001
 5.29785000e-001
 2.29797000e-001
 3.83301000e-001
 5.81512000e-001
 7.00073000e-001
 4.82788000e-001
 2.76031000e-001
 1.56708000e-001
 3.09906000e-001
 4.45709000e-001
 4.41589000e-001
 2.27203000e-001
 4.04360000e-002
 2.06451000e-001
 2.99225000e-001
 3.98865000e-001
 2.34528000e-001
 9.78090000e-002
 -1.31531000e-001
 -3.73840000e-002
 1.15204000e-001
 1.18408000e-001
 -1.35345000e-001
 -2.38190000e-001
 -1.73187000e-001
 -1.42822000e-001
 7.40050000e-002
 -1.78528000e-001
 -3.81775000e-001
 -3.90472000e-001
 -2.13623000e-001
 -1.69525000e-001
 -2.03400000e-001
 -2.96631000e-001
 -4.55017000e-001
 -4.83246000e-001
 -3.96271000e-001
 -3.03955000e-001
 -4.43268000e-001
 -5.17120000e-001
 -6.07300000e-001
 -5.49927000e-001
 -4.74701000e-001
 -2.96631000e-001
 -4.74396000e-001
 -6.43768000e-001
 -6.43463000e-001
 -5.14984000e-001
 -5.36041000e-001
 -5.50537000e-001
 -5.81207000e-001
 -7.66907000e-001
 -5.07355000e-001
 -3.48206000e-001
 -4.01306000e-001
 -6.71234000e-001
 -7.21436000e-001
 -8.23364000e-001
 -7.60803000e-001
 -6.73523000e-001
 -6.37207000e-001
 -7.54547000e-001
 -8.35266000e-001
 -6.78253000e-001
 -5.58472000e-001
 -6.07300000e-001
 -6.35223000e-001
 -6.85120000e-001
 -8.70514000e-001
 -6.95038000e-001
 -6.46820000e-001
 -6.71234000e-001
 -8.82263000e-001
 -8.88519000e-001
 -7.63855000e-001
 -6.66962000e-001
 -4.69818000e-001
 -6.38275000e-001
 -7.45697000e-001
 -8.01392000e-001
 -5.95245000e-001
 -4.83093000e-001
 -4.90723000e-001
 -6.50482000e-001
 -7.19299000e-001
 -6.33545000e-001
 -5.40466000e-001
 -5.03235000e-001
 -6.91833000e-001
 -6.85577000e-001
 -7.85828000e-001
 -7.86438000e-001
 -6.69861000e-001
 -4.39148000e-001
 -6.06232000e-001
 -8.11920000e-001
