 -8.87604000e-001
 -9.13849000e-001
 -8.86230000e-001
 -8.80127000e-001
 -9.30634000e-001
 -9.06525000e-001
 -9.02557000e-001
 -9.17511000e-001
 -9.47723000e-001
 -9.75189000e-001
 -9.38110000e-001
 -9.46045000e-001
 -9.51996000e-001
 -9.36890000e-001
 -9.59778000e-001
 -9.35364000e-001
 -8.78143000e-001
 -8.70361000e-001
 -9.07898000e-001
 -9.03625000e-001
 -8.83942000e-001
 -9.36890000e-001
 -9.14612000e-001
 -9.14612000e-001
 -8.92792000e-001
 -9.31549000e-001
 -9.03931000e-001
 -8.86230000e-001
 -8.77533000e-001
 -9.06830000e-001
 -9.02557000e-001
 -9.25293000e-001
 -9.14001000e-001
 -8.75702000e-001
 -9.15833000e-001
 -9.21173000e-001
 -8.78448000e-001
 -8.50372000e-001
 -8.50677000e-001
 -8.07343000e-001
 -8.67920000e-001
 -8.18329000e-001
 -8.43506000e-001
 -8.40454000e-001
 -8.61816000e-001
 -8.70667000e-001
 -8.87299000e-001
 -9.13239000e-001
 -8.87146000e-001
 -8.60138000e-001
 -8.87909000e-001
 -9.04236000e-001
 -8.80585000e-001
 -8.47015000e-001
 -8.97522000e-001
 -8.83636000e-001
 -8.61969000e-001
 -8.60138000e-001
 -8.32977000e-001
 -8.74023000e-001
 -8.51898000e-001
 -8.86688000e-001
 -9.43604000e-001
 -9.06372000e-001
 -9.24225000e-001
 -9.62219000e-001
 -9.32922000e-001
 -9.12476000e-001
 -9.14307000e-001
 -9.06677000e-001
 -9.18274000e-001
 -9.16748000e-001
 -9.22241000e-001
 -8.89282000e-001
 -9.03168000e-001
 -9.04694000e-001
 -8.56476000e-001
 -8.75854000e-001
 -8.50677000e-001
 -8.61359000e-001
 -8.69904000e-001
 -8.75702000e-001
 -9.12781000e-001
 -8.61359000e-001
 -8.60443000e-001
 -8.70819000e-001
 -8.88367000e-001
 -8.58154000e-001
 -9.07440000e-001
 -8.30688000e-001
 -8.21686000e-001
 -8.41675000e-001
 -8.21991000e-001
 -8.83331000e-001
 -8.83636000e-001
 -8.88062000e-001
 -8.91724000e-001
 -8.75397000e-001
 -8.89282000e-001
 -8.70514000e-001
 -8.94012000e-001
 -9.17816000e-001
 -9.22394000e-001
 -9.19495000e-001
 -8.92792000e-001
 -8.70209000e-001
 -8.74329000e-001
 -8.51746000e-001
 -8.84705000e-001
 -8.81805000e-001
 -8.48846000e-001
 -8.58154000e-001
 -8.81042000e-001
 -8.82721000e-001
 -8.57086000e-001
 -8.12988000e-001
 -7.98950000e-001
 -8.28094000e-001
 -8.63342000e-001
 -8.88367000e-001
 -8.67310000e-001
 -9.21021000e-001
 -8.55560000e-001
 -8.61053000e-001
 -8.91266000e-001
 -9.14001000e-001
 -8.77533000e-001
 -8.82263000e-001
 -8.69293000e-001
 -8.65936000e-001
 -8.76312000e-001
 -8.97217000e-001
 -8.74176000e-001
 -8.22449000e-001
 -8.37708000e-001
 -8.50372000e-001
 -8.51135000e-001
 -8.90045000e-001
 -9.06219000e-001
 -9.17053000e-001
 -8.74634000e-001
 -8.47473000e-001
 -9.20868000e-001
 -8.99811000e-001
 -8.77838000e-001
 -8.59375000e-001
 -8.62732000e-001
 -8.69446000e-001
 -9.01794000e-001
 -8.44727000e-001
 -8.50372000e-001
 -8.30688000e-001
 -8.54034000e-001
 -8.21228000e-001
 -8.21381000e-001
 -7.70874000e-001
 -8.01849000e-001
 -7.72705000e-001
 -7.41577000e-001
 -7.82623000e-001
 -7.74994000e-001
 -7.58972000e-001
 -7.18384000e-001
 -7.11212000e-001
 -7.05719000e-001
 -6.88324000e-001
 -6.92902000e-001
 -6.28967000e-001
 -6.49567000e-001
 -7.10602000e-001
 -6.82526000e-001
 -6.34766000e-001
 -6.10657000e-001
 -6.05316000e-001
 -5.94940000e-001
 -5.90057000e-001
 -6.01654000e-001
 -5.62744000e-001
 -5.64117000e-001
 -5.36957000e-001
 -5.34515000e-001
 -5.57709000e-001
 -5.38788000e-001
 -5.42297000e-001
 -5.40466000e-001
 -5.69458000e-001
 -5.59082000e-001
 -5.59692000e-001
 -5.08270000e-001
 -5.08118000e-001
 -5.36194000e-001
 -5.13306000e-001
 -5.25665000e-001
 -4.86450000e-001
 -4.92096000e-001
 -5.63812000e-001
 -5.70374000e-001
 -6.23322000e-001
 -6.16608000e-001
 -6.19202000e-001
 -6.50635000e-001
 -6.08826000e-001
 -5.77545000e-001
 -5.94025000e-001
 -5.54199000e-001
 -5.90363000e-001
 -5.67780000e-001
 -5.77240000e-001
 -6.09741000e-001
 -6.00739000e-001
 -5.80902000e-001
 -5.39703000e-001
 -5.58624000e-001
 -6.25916000e-001
 -6.08978000e-001
 -6.35376000e-001
 -5.71442000e-001
 -6.10657000e-001
 -6.30951000e-001
 -6.40259000e-001
 -6.61621000e-001
 -7.02515000e-001
 -6.81763000e-001
 -7.16248000e-001
 -7.38220000e-001
 -7.02057000e-001
 -7.46613000e-001
 -7.38525000e-001
 -8.06885000e-001
 -8.09326000e-001
 -7.94373000e-001
 -8.38318000e-001
 -8.36945000e-001
 -9.20563000e-001
 -9.44672000e-001
 -9.42841000e-001
 -9.40552000e-001
 -9.80835000e-001
 -9.68018000e-001
 -1.00647000e+000
 -9.70459000e-001
 -9.78546000e-001
 -9.46198000e-001
 -9.57031000e-001
 -9.86328000e-001
 -1.00814800e+000
 -1.05423000e+000
 -1.01959200e+000
 -1.04599000e+000
 -1.02905300e+000
 -1.01669300e+000
 -1.02218600e+000
 -1.03286700e+000
 -9.97925000e-001
 -1.07391400e+000
 -1.05545000e+000
 -1.07803300e+000
 -1.03515600e+000
 -9.96704000e-001
 -1.01120000e+000
 -9.85565000e-001
 -1.02157600e+000
 -1.00555400e+000
 -1.00235000e+000
 -1.05499300e+000
 -1.09008800e+000
 -1.06094400e+000
 -1.04385400e+000
 -1.05911300e+000
 -1.05514500e+000
 -1.05804400e+000
 -1.02050800e+000
 -1.03439300e+000
 -1.05911300e+000
 -1.04431200e+000
 -1.07513400e+000
 -1.09222400e+000
 -1.05392500e+000
 -1.04263300e+000
 -1.02813700e+000
 -1.04766800e+000
 -1.04187000e+000
 -9.74121000e-001
 -1.00341800e+000
 -1.00616500e+000
 -1.06735200e+000
 -1.05514500e+000
 -1.02111800e+000
 -1.02981600e+000
 -1.02035500e+000
 -1.03607200e+000
 -1.01623500e+000
 -1.04049700e+000
 -1.04721100e+000
 -1.02188100e+000
 -9.33075000e-001
 -8.51898000e-001
 -9.04388000e-001
 -8.84857000e-001
 -8.57086000e-001
 -8.31757000e-001
 -7.77588000e-001
 -7.26624000e-001
 -6.11877000e-001
 -5.72052000e-001
 -5.30243000e-001
 -5.38177000e-001
 -4.97284000e-001
 -4.26636000e-001
 -3.72925000e-001
 -3.31879000e-001
 -2.43073000e-001
 -7.12590000e-002
 -2.13620000e-002
 1.16577000e-001
 2.75421000e-001
 4.24957000e-001
 6.02722000e-001
 8.10852000e-001
 1.08123800e+000
 1.30966200e+000
 1.58691400e+000
 1.79153400e+000
 1.97357200e+000
 2.14798000e+000
 2.33642600e+000
 2.54058800e+000
 2.64465300e+000
 2.65365600e+000
 2.64373800e+000
 2.64801000e+000
 2.31201200e+000
 1.77658100e+000
 1.39205900e+000
 9.18884000e-001
 5.84564000e-001
 3.08380000e-001
 7.46150000e-002
 -1.46332000e-001
 -3.19366000e-001
 -4.47235000e-001
 -4.66003000e-001
 -4.29840000e-001
 -4.44336000e-001
 -4.55627000e-001
 -4.89349000e-001
 -5.55878000e-001
 -6.55975000e-001
 -7.44324000e-001
 -8.24890000e-001
 -9.08356000e-001
 -9.38416000e-001
 -1.02615400e+000
 -1.13327000e+000
 -1.21460000e+000
 -1.23367300e+000
 -1.19674700e+000
 -1.24343900e+000
 -1.28830000e+000
 -1.27731300e+000
 -1.23489400e+000
 -1.16897600e+000
 -1.16897600e+000
 -1.11846900e+000
 -1.14639300e+000
 -1.15829500e+000
 -1.13952600e+000
 -1.02127100e+000
 -9.85870000e-001
 -9.99908000e-001
 -9.26819000e-001
 -9.72595000e-001
 -8.93097000e-001
 -9.28192000e-001
 -9.30786000e-001
 -9.25140000e-001
 -9.11407000e-001
 -9.12628000e-001
 -9.42841000e-001
 -9.44214000e-001
 -9.23004000e-001
 -8.84094000e-001
 -9.26361000e-001
 -9.84497000e-001
 -9.51996000e-001
 -9.23920000e-001
 -9.29718000e-001
 -9.36127000e-001
 -9.54437000e-001
 -9.56879000e-001
 -9.90295000e-001
 -9.71375000e-001
 -9.62219000e-001
 -9.68323000e-001
 -9.66492000e-001
 -9.15375000e-001
 -9.32007000e-001
 -9.56879000e-001
 -9.59015000e-001
 -9.09576000e-001
 -8.85773000e-001
 -8.73718000e-001
 -8.98895000e-001
 -9.13544000e-001
 -9.18884000e-001
 -9.50165000e-001
 -9.03931000e-001
 -8.89893000e-001
 -9.03320000e-001
 -8.84094000e-001
 -8.76312000e-001
 -8.89893000e-001
 -8.97369000e-001
 -9.14917000e-001
 -8.97217000e-001
 -9.34448000e-001
 -8.70819000e-001
 -8.18024000e-001
 -8.04749000e-001
 -8.23517000e-001
 -7.96967000e-001
 -8.13751000e-001
 -8.47931000e-001
 -8.45795000e-001
 -8.50830000e-001
 -8.52203000e-001
 -8.66547000e-001
 -8.27789000e-001
 -8.39386000e-001
 -8.43658000e-001
 -8.85620000e-001
 -8.91876000e-001
 -8.76160000e-001
 -8.64868000e-001
 -8.64716000e-001
 -8.75549000e-001
 -8.78754000e-001
 -8.59680000e-001
 -8.76923000e-001
 -8.34198000e-001
 -7.94373000e-001
 -8.16193000e-001
 -8.12073000e-001
 -7.68585000e-001
 -7.92084000e-001
 -8.25958000e-001
 -7.98798000e-001
 -7.71027000e-001
 -7.82928000e-001
 -7.95288000e-001
 -8.14667000e-001
 -8.20618000e-001
 -8.21381000e-001
 -8.28247000e-001
 -8.39233000e-001
 -7.95593000e-001
 -7.80792000e-001
 -7.69043000e-001
 -7.78503000e-001
 -7.27692000e-001
 -7.89337000e-001
 -7.97119000e-001
 -7.52106000e-001
 -7.49207000e-001
 -7.93762000e-001
 -7.83997000e-001
 -8.21686000e-001
 -7.91626000e-001
 -7.90710000e-001
 -7.80792000e-001
 -7.91779000e-001
 -8.00018000e-001
 -7.79877000e-001
 -7.52716000e-001
 -8.02155000e-001
 -7.64771000e-001
 -7.60193000e-001
 -7.60956000e-001
 -7.65381000e-001
 -7.74536000e-001
 -8.20770000e-001
 -8.26874000e-001
 -7.79572000e-001
 -7.44171000e-001
 -7.56073000e-001
 -7.42798000e-001
 -7.07245000e-001
 -6.89240000e-001
 -7.00989000e-001
 -7.43103000e-001
 -7.25098000e-001
 -6.83441000e-001
 -7.13501000e-001
 -7.19757000e-001
 -6.73065000e-001
 -6.75659000e-001
 -7.05414000e-001
 -7.32880000e-001
 -7.50732000e-001
 -7.03125000e-001
 -6.93359000e-001
 -6.94885000e-001
 -7.33948000e-001
 -7.32269000e-001
 -6.94733000e-001
 -6.52466000e-001
 -6.23016000e-001
 -6.14166000e-001
 -6.41174000e-001
 -6.20422000e-001
 -6.20270000e-001
 -6.12946000e-001
 -6.11420000e-001
 -5.99213000e-001
 -6.08368000e-001
 -5.76630000e-001
 -5.37109000e-001
 -5.70068000e-001
 -5.26733000e-001
 -5.40619000e-001
 -4.90265000e-001
 -4.64172000e-001
 -4.56696000e-001
 -4.28619000e-001
 -4.56390000e-001
 -4.67377000e-001
 -4.18854000e-001
 -4.02985000e-001
 -4.08783000e-001
 -4.21753000e-001
 -4.20837000e-001
 -4.03137000e-001
 -3.62396000e-001
 -3.63770000e-001
 -3.35541000e-001
 -3.04260000e-001
 -2.83813000e-001
 -3.43628000e-001
 -3.05328000e-001
 -3.10974000e-001
 -2.38953000e-001
 -2.46124000e-001
 -2.78168000e-001
 -2.45209000e-001
 -2.21252000e-001
 -2.28729000e-001
 -2.07214000e-001
 -1.71509000e-001
 -2.45819000e-001
 -2.47192000e-001
 -2.28577000e-001
 -2.33917000e-001
 -2.71149000e-001
 -2.66876000e-001
 -2.22015000e-001
 -1.99280000e-001
 -2.09961000e-001
 -1.71051000e-001
 -1.62659000e-001
 -1.18103000e-001
 -1.60980000e-001
 -1.42365000e-001
 -1.12305000e-001
 -7.72090000e-002
 -6.27140000e-002
 -1.98360000e-002
 -6.01200000e-002
 -6.88170000e-002
 -7.73620000e-002
 -7.59890000e-002
 -6.42400000e-002
 -3.40270000e-002
 -2.50240000e-002
 -5.56950000e-002
 -8.88060000e-002
 -5.15750000e-002
 -3.40270000e-002
 -2.97550000e-002
 -2.33460000e-002
 -4.16560000e-002
 -5.23380000e-002
 -8.13290000e-002
 -1.03302000e-001
 -1.20697000e-001
 -1.37787000e-001
 -1.94397000e-001
 -1.86768000e-001
 -1.63574000e-001
 -1.89819000e-001
 -1.78833000e-001
 -1.90125000e-001
 -1.90125000e-001
 -1.82343000e-001
 -2.23999000e-001
 -2.76489000e-001
 -2.77252000e-001
 -3.03192000e-001
 -3.25623000e-001
 -3.58734000e-001
 -3.93677000e-001
 -4.02069000e-001
 -4.27246000e-001
 -4.61578000e-001
 -4.83551000e-001
 -5.14984000e-001
 -5.33600000e-001
 -5.50385000e-001
 -5.31616000e-001
 -5.61066000e-001
 -6.06537000e-001
 -6.39038000e-001
 -6.82373000e-001
 -6.58875000e-001
 -6.84509000e-001
 -6.74286000e-001
 -6.57349000e-001
 -7.22656000e-001
 -7.43408000e-001
 -7.23724000e-001
 -7.57599000e-001
 -7.38831000e-001
 -7.33795000e-001
 -7.47223000e-001
 -7.84149000e-001
 -8.26416000e-001
 -8.66241000e-001
 -8.44727000e-001
 -8.73108000e-001
 -9.00269000e-001
 -9.33685000e-001
 -9.32770000e-001
 -9.13849000e-001
 -9.49097000e-001
 -9.61456000e-001
 -9.60999000e-001
 -9.65271000e-001
 -9.74426000e-001
 -9.60083000e-001
 -9.65881000e-001
 -9.81293000e-001
 -9.64508000e-001
 -9.67712000e-001
 -9.58710000e-001
 -9.30481000e-001
 -9.62524000e-001
 -9.62372000e-001
 -9.51691000e-001
 -9.76410000e-001
 -1.01501500e+000
 -1.01196300e+000
 -1.04431200e+000
 -1.01989700e+000
 -1.02508500e+000
 -1.01455700e+000
 -1.02996800e+000
 -1.03637700e+000
 -1.03179900e+000
 -1.02401700e+000
 -1.06140100e+000
 -1.04446400e+000
 -1.05850200e+000
 -1.07681300e+000
 -1.08871500e+000
 -1.12121600e+000
 -1.07360800e+000
 -1.07467700e+000
 -1.04324300e+000
 -1.05789200e+000
 -1.08642600e+000
 -1.11373900e+000
 -1.06338500e+000
 -1.07009900e+000
 -1.05148300e+000
 -1.04110700e+000
 -1.07910200e+000
 -1.03530900e+000
 -1.01501500e+000
 -1.02005000e+000
 -1.04507400e+000
 -1.09207200e+000
 -1.10748300e+000
 -1.09863300e+000
 -1.09314000e+000
 -1.09848000e+000
 -1.09893800e+000
 -1.08154300e+000
 -1.13220200e+000
 -1.10092200e+000
 -1.11328100e+000
 -1.11343400e+000
 -1.08932500e+000
 -1.12167400e+000
 -1.08779900e+000
 -1.06933600e+000
 -1.12457300e+000
 -1.09085100e+000
 -1.06063800e+000
 -1.06842000e+000
 -1.06170700e+000
 -1.08383200e+000
 -1.08993500e+000
 -1.10717800e+000
 -1.07833900e+000
 -1.08764600e+000
 -1.11343400e+000
 -1.09924300e+000
 -1.10229500e+000
 -1.06720000e+000
 -1.08612100e+000
 -1.11160300e+000
 -1.10137900e+000
 -1.08520500e+000
 -1.05804400e+000
 -1.02600100e+000
 -1.04171800e+000
 -1.05026200e+000
 -1.08017000e+000
 -1.08703600e+000
 -1.04888900e+000
 -1.02722200e+000
 -1.06262200e+000
 -1.08184800e+000
 -1.02279700e+000
 -1.00936900e+000
 -1.04339600e+000
 -1.06414800e+000
 -1.09924300e+000
 -1.10885600e+000
 -1.10855100e+000
 -1.07940700e+000
 -1.06063800e+000
 -1.02691700e+000
 -1.07971200e+000
 -1.09954800e+000
 -1.08001700e+000
 -1.05087300e+000
 -1.09161400e+000
 -1.08520500e+000
 -1.08215300e+000
 -1.04919400e+000
 -1.07803300e+000
 -1.05880700e+000
 -1.07772800e+000
 -1.07055700e+000
 -9.99603000e-001
 -1.02401700e+000
 -9.54895000e-001
 -9.78851000e-001
 -1.00357100e+000
 -1.04751600e+000
 -1.04827900e+000
 -1.00006100e+000
 -9.85413000e-001
 -8.97980000e-001
 -8.81805000e-001
 -9.14307000e-001
 -9.42535000e-001
 -9.43604000e-001
 -9.89075000e-001
 -9.99298000e-001
 -1.03469800e+000
 -1.05514500e+000
 -1.08734100e+000
 -1.08749400e+000
 -1.14791900e+000
 -1.13525400e+000
 -1.12167400e+000
 -1.10656700e+000
 -1.10321000e+000
 -1.11511200e+000
 -1.13723800e+000
 -1.18850700e+000
 -1.16500900e+000
 -1.13418600e+000
 -1.18286100e+000
 -1.10733000e+000
 -1.10412600e+000
 -1.12716700e+000
 -1.10214200e+000
 -1.08276400e+000
 -1.08703600e+000
 -1.08169600e+000
 -1.06140100e+000
 -1.11999500e+000
 -1.11358600e+000
 -1.12670900e+000
 -1.10809300e+000
 -1.12411500e+000
 -1.11923200e+000
 -1.13891600e+000
 -1.06506300e+000
 -1.10031100e+000
 -1.11831700e+000
 -1.11175500e+000
 -1.08337400e+000
 -1.10656700e+000
 -1.16134600e+000
 -1.13845800e+000
 -1.15493800e+000
 -1.16958600e+000
 -1.14028900e+000
 -1.09954800e+000
 -1.11908000e+000
 -1.14440900e+000
 -1.12075800e+000
 -1.11633300e+000
 -1.10900900e+000
 -1.14639300e+000
 -1.11358600e+000
 -1.08459500e+000
 -1.05606100e+000
 -1.05346700e+000
 -1.06124900e+000
 -1.06887800e+000
 -1.07742300e+000
 -1.08978300e+000
 -1.08596800e+000
 -1.09954800e+000
 -1.10275300e+000
 -1.12350500e+000
 -1.13769500e+000
 -1.11404400e+000
 -1.11969000e+000
 -1.09420800e+000
 -1.12731900e+000
 -1.12457300e+000
 -1.14013700e+000
 -1.12991300e+000
 -1.06292700e+000
 -1.06674200e+000
 -1.07559200e+000
 -1.14166300e+000
 -1.13479600e+000
 -1.17767300e+000
 -1.14227300e+000
 -1.11846900e+000
 -1.12167400e+000
 -1.08947800e+000
 -1.09436000e+000
 -1.02630600e+000
 -1.07086200e+000
 -1.10321000e+000
 -1.16409300e+000
 -1.17721600e+000
 -1.14563000e+000
 -1.10092200e+000
 -1.08093300e+000
 -1.07818600e+000
 -1.07528700e+000
 -1.08276400e+000
 -1.10672000e+000
 -1.10504200e+000
 -1.08596800e+000
 -1.11053500e+000
 -1.07315100e+000
 -1.07849100e+000
 -1.10076900e+000
 -1.10611000e+000
 -1.17034900e+000
 -1.12503100e+000
 -1.11831700e+000
 -1.11541700e+000
 -1.12823500e+000
 -1.19216900e+000
 -1.21994000e+000
 -1.16958600e+000
 -1.17370600e+000
 -1.18331900e+000
 -1.18347200e+000
 -1.21765100e+000
 -1.19186400e+000
 -1.22497600e+000
 -1.21398900e+000
 -1.20071400e+000
 -1.16500900e+000
 -1.21078500e+000
 -1.19995100e+000
 -1.17767300e+000
 -1.19842500e+000
 -1.17431600e+000
 -1.17996200e+000
 -1.16806000e+000
 -1.19247400e+000
 -1.20575000e+000
 -1.18164100e+000
 -1.19659400e+000
 -1.20712300e+000
 -1.22192400e+000
 -1.21902500e+000
 -1.21917700e+000
 -1.13769500e+000
 -1.14730800e+000
 -1.15966800e+000
 -1.14990200e+000
 -1.17294300e+000
 -1.17935200e+000
 -1.21719400e+000
 -1.17630000e+000
 -1.20559700e+000
 -1.21307400e+000
 -1.21444700e+000
 -1.18576000e+000
 -1.20590200e+000
 -1.19857800e+000
 -1.22406000e+000
 -1.22070300e+000
 -1.19278000e+000
 -1.19339000e+000
 -1.20422400e+000
 -1.18438700e+000
 -1.23962400e+000
 -1.21933000e+000
 -1.24389600e+000
 -1.23580900e+000
 -1.26907300e+000
 -1.26190200e+000
 -1.21627800e+000
 -1.20483400e+000
 -1.22055100e+000
 -1.20544400e+000
 -1.20193500e+000
 -1.22360200e+000
 -1.25045800e+000
 -1.18438700e+000
 -1.14028900e+000
 -1.16714500e+000
 -1.19293200e+000
 -1.18606600e+000
 -1.19125400e+000
 -1.17279100e+000
 -1.20773300e+000
 -1.24221800e+000
 -1.18316700e+000
 -1.20575000e+000
 -1.22207600e+000
 -1.21826200e+000
 -1.22482300e+000
 -1.26754800e+000
 -1.19812000e+000
 -1.23397800e+000
 -1.22879000e+000
 -1.22894300e+000
 -1.22543300e+000
 -1.25640900e+000
 -1.23992900e+000
 -1.20361300e+000
 -1.22299200e+000
 -1.24206500e+000
 -1.20193500e+000
 -1.21063200e+000
 -1.23428300e+000
 -1.24404900e+000
 -1.21887200e+000
 -1.22695900e+000
 -1.20559700e+000
 -1.22390700e+000
 -1.23886100e+000
 -1.22024500e+000
 -1.19964600e+000
 -1.25976600e+000
 -1.27883900e+000
 -1.26388500e+000
 -1.26388500e+000
 -1.23764000e+000
 -1.24328600e+000
 -1.24710100e+000
 -1.25900300e+000
 -1.22161900e+000
 -1.19964600e+000
 -1.19567900e+000
 -1.22985800e+000
 -1.23123200e+000
 -1.20529200e+000
 -1.23443600e+000
 -1.26693700e+000
 -1.28067000e+000
 -1.21002200e+000
 -1.25228900e+000
 -1.23886100e+000
 -1.23291000e+000
 -1.22512800e+000
 -1.30096400e+000
 -1.29043600e+000
 -1.23794600e+000
 -1.23123200e+000
 -1.24588000e+000
 -1.29791300e+000
 -1.30981400e+000
 -1.27578700e+000
 -1.26403800e+000
 -1.22802700e+000
 -1.22802700e+000
 -1.26159700e+000
 -1.23779300e+000
 -1.24298100e+000
 -1.27838100e+000
 -1.26358000e+000
 -1.30172700e+000
 -1.29882800e+000
 -1.26953100e+000
 -1.29241900e+000
 -1.22207600e+000
 -1.24115000e+000
 -1.27883900e+000
 -1.27151500e+000
 -1.27914400e+000
 -1.23107900e+000
 -1.20315600e+000
 -1.24511700e+000
 -1.24252300e+000
 -1.22329700e+000
 -1.21719400e+000
 -1.23657200e+000
 -1.22390700e+000
 -1.22955300e+000
 -1.27151500e+000
 -1.29638700e+000
 -1.24664300e+000
 -1.33453400e+000
 -1.27395600e+000
 -1.27090500e+000
 -1.22695900e+000
 -1.26464800e+000
 -1.26541100e+000
 -1.24221800e+000
 -1.29165600e+000
 -1.29211400e+000
 -1.25518800e+000
 -1.23626700e+000
 -1.26159700e+000
 -1.22436500e+000
 -1.23733500e+000
 -1.29486100e+000
 -1.30966200e+000
 -1.23596200e+000
 -1.25228900e+000
 -1.28494300e+000
 -1.22863800e+000
 -1.22970600e+000
 -1.25259400e+000
 -1.22131300e+000
 -1.21841400e+000
 -1.21643100e+000
 -1.20636000e+000
 -1.22116100e+000
 -1.25106800e+000
 -1.21719400e+000
 -1.27883900e+000
 -1.24603300e+000
 -1.21521000e+000
 -1.19262700e+000
 -1.28891000e+000
 -1.25564600e+000
 -1.25900300e+000
 -1.27349900e+000
 -1.21246300e+000
 -1.19781500e+000
 -1.23992900e+000
 -1.26373300e+000
 -1.26251200e+000
 -1.24877900e+000
 -1.23413100e+000
 -1.27761800e+000
 -1.25335700e+000
 -1.30142200e+000
 -1.31469700e+000
 -1.23382600e+000
 -1.21063200e+000
 -1.18026700e+000
 -1.26449600e+000
 -1.29058800e+000
 -1.23642000e+000
 -1.26388500e+000
 -1.26236000e+000
 -1.25427200e+000
 -1.25457800e+000
 -1.25366200e+000
 -1.25396700e+000
 -1.27365100e+000
 -1.26525900e+000
 -1.30752600e+000
 -1.27594000e+000
 -1.23748800e+000
 -1.23794600e+000
 -1.27365100e+000
 -1.28143300e+000
 -1.28097500e+000
 -1.27029400e+000
 -1.28784200e+000
 -1.27029400e+000
 -1.25579800e+000
 -1.29196200e+000
 -1.30813600e+000
 -1.23230000e+000
 -1.25457800e+000
 -1.22558600e+000
 -1.29089400e+000
 -1.24404900e+000
 -1.29440300e+000
 -1.24725300e+000
 -1.22894300e+000
 -1.23092700e+000
 -1.16592400e+000
 -1.20529200e+000
 -1.18072500e+000
 -1.15768400e+000
 -1.15356400e+000
 -1.15676900e+000
 -1.13891600e+000
 -1.13266000e+000
 -1.11190800e+000
 -1.15432700e+000
 -1.13235500e+000
 -1.09970100e+000
 -1.12426800e+000
 -1.12533600e+000
 -1.10977200e+000
 -1.11022900e+000
 -1.10885600e+000
 -1.05361900e+000
 -1.02752700e+000
 -1.02645900e+000
 -1.01333600e+000
 -9.70306000e-001
 -9.36432000e-001
 -9.41925000e-001
 -9.40704000e-001
 -9.23462000e-001
 -9.08051000e-001
 -9.19189000e-001
 -9.19800000e-001
 -9.05914000e-001
 -8.96454000e-001
 -9.08813000e-001
 -8.72040000e-001
 -8.98590000e-001
 -9.10492000e-001
 -8.75244000e-001
 -8.94775000e-001
 -8.77838000e-001
 -8.62732000e-001
 -8.96301000e-001
 -9.15070000e-001
 -9.05304000e-001
 -9.10492000e-001
 -8.70514000e-001
 -9.15833000e-001
 -8.82111000e-001
 -9.03778000e-001
 -9.41772000e-001
 -9.47266000e-001
 -9.42688000e-001
 -9.84192000e-001
 -9.31549000e-001
 -9.22699000e-001
 -9.23309000e-001
 -9.65118000e-001
 -9.79004000e-001
 -9.61151000e-001
 -9.55505000e-001
 -9.41772000e-001
 -1.00555400e+000
 -1.01776100e+000
 -9.96857000e-001
 -1.01898200e+000
 -1.01242100e+000
 -1.02706900e+000
 -1.00845300e+000
 -1.02127100e+000
 -1.04171800e+000
 -1.07757600e+000
 -1.07376100e+000
 -1.06826800e+000
 -1.13342300e+000
 -1.09268200e+000
 -1.14746100e+000
 -1.17675800e+000
 -1.17614700e+000
 -1.16928100e+000
 -1.20941200e+000
 -1.20361300e+000
 -1.25732400e+000
 -1.28326400e+000
 -1.28219600e+000
 -1.31729100e+000
 -1.29379300e+000
 -1.29089400e+000
 -1.37893700e+000
 -1.35192900e+000
 -1.38229400e+000
 -1.40045200e+000
 -1.40197800e+000
 -1.42257700e+000
 -1.44302400e+000
 -1.41204800e+000
 -1.37558000e+000
 -1.39404300e+000
 -1.44989000e+000
 -1.44424400e+000
 -1.47232100e+000
 -1.43692000e+000
 -1.41128500e+000
 -1.44668600e+000
 -1.38244600e+000
 -1.38488800e+000
 -1.37374900e+000
 -1.37908900e+000
 -1.40625000e+000
 -1.39099100e+000
 -1.41403200e+000
 -1.43569900e+000
 -1.40350300e+000
 -1.40213000e+000
 -1.42303500e+000
 -1.47125200e+000
 -1.51123000e+000
 -1.45553600e+000
 -1.48681600e+000
 -1.43905600e+000
 -1.46163900e+000
 -1.46026600e+000
 -1.49017300e+000
 -1.43783600e+000
 -1.39373800e+000
 -1.37908900e+000
 -1.35452300e+000
 -1.37649500e+000
 -1.35421800e+000
 -1.38565100e+000
 -1.40335100e+000
 -1.38809200e+000
 -1.39831500e+000
 -1.44271900e+000
 -1.40213000e+000
 -1.43035900e+000
 -1.41494800e+000
 -1.42440800e+000
 -1.43234300e+000
 -1.39770500e+000
 -1.41403200e+000
 -1.40365600e+000
 -1.32339500e+000
 -1.32125900e+000
 -1.30783100e+000
 -1.28097500e+000
 -1.29715000e+000
 -1.28494300e+000
 -1.21139500e+000
 -1.21810900e+000
 -1.18194600e+000
 -1.08047500e+000
 -1.01196300e+000
 -9.47876000e-001
 -9.26819000e-001
 -9.16901000e-001
 -8.62732000e-001
 -7.96204000e-001
 -7.50732000e-001
 -6.63147000e-001
 -6.12640000e-001
 -4.56085000e-001
 -3.68805000e-001
 -1.59149000e-001
 -5.85940000e-002
 8.46860000e-002
 2.68097000e-001
 5.17120000e-001
 7.38525000e-001
 1.01257300e+000
 1.17355300e+000
 1.37802100e+000
 1.58889800e+000
 1.77581800e+000
 2.01568600e+000
 2.19512900e+000
 2.40905800e+000
 2.45254500e+000
 2.37121600e+000
 2.24838300e+000
 1.84997600e+000
 1.32919300e+000
 9.16290000e-001
 5.18951000e-001
 2.03705000e-001
 -1.16730000e-001
 -3.15704000e-001
 -5.27649000e-001
 -6.96869000e-001
 -7.85675000e-001
 -7.94373000e-001
 -7.86285000e-001
 -7.94525000e-001
 -8.76312000e-001
 -9.79156000e-001
 -1.04003900e+000
 -1.13678000e+000
 -1.22100800e+000
 -1.34140000e+000
 -1.40777600e+000
 -1.48513800e+000
 -1.53945900e+000
 -1.64047200e+000
 -1.67816200e+000
 -1.74881000e+000
 -1.73660300e+000
 -1.68853800e+000
 -1.70745800e+000
 -1.69906600e+000
 -1.63085900e+000
 -1.57775900e+000
 -1.62353500e+000
 -1.57577500e+000
 -1.62429800e+000
 -1.52038600e+000
 -1.44378700e+000
 -1.40029900e+000
 -1.45324700e+000
 -1.39923100e+000
 -1.37741100e+000
 -1.36001600e+000
 -1.32034300e+000
 -1.33499100e+000
 -1.31866500e+000
 -1.32980300e+000
 -1.31988500e+000
 -1.33407600e+000
 -1.46362300e+000
 -1.43112200e+000
 -1.42257700e+000
 -1.35894800e+000
 -1.43615700e+000
 -1.41891500e+000
 -1.45370500e+000
 -1.33941700e+000
 -1.33850100e+000
 -1.32843000e+000
 -1.40258800e+000
 -1.42684900e+000
 -1.38641400e+000
 -1.32690400e+000
 -1.36032100e+000
 -1.36383100e+000
 -1.34323100e+000
 -1.41891500e+000
 -1.37283300e+000
 -1.42272900e+000
 -1.40869100e+000
 -1.36917100e+000
 -1.43463100e+000
 -1.37313800e+000
 -1.37756300e+000
 -1.40228300e+000
 -1.39694200e+000
 -1.33682300e+000
 -1.36489900e+000
 -1.41052200e+000
 -1.35803200e+000
 -1.35101300e+000
 -1.35849000e+000
 -1.31347700e+000
 -1.29562400e+000
 -1.37435900e+000
 -1.37481700e+000
 -1.42318700e+000
 -1.37298600e+000
 -1.31439200e+000
 -1.36901900e+000
 -1.35482800e+000
 -1.29547100e+000
 -1.34002700e+000
 -1.34948700e+000
 -1.28677400e+000
 -1.30233800e+000
 -1.32247900e+000
 -1.32141100e+000
 -1.32934600e+000
 -1.40274000e+000
 -1.37527500e+000
 -1.29928600e+000
 -1.35055500e+000
 -1.37313800e+000
 -1.30584700e+000
 -1.33712800e+000
 -1.40884400e+000
 -1.49108900e+000
 -1.40090900e+000
 -1.35376000e+000
 -1.29165600e+000
 -1.21414200e+000
 -1.20468100e+000
 -1.25701900e+000
 -1.31668100e+000
 -1.30020100e+000
 -1.27288800e+000
 -1.32904100e+000
 -1.24679600e+000
 -1.28356900e+000
 -1.27929700e+000
 -1.32431000e+000
 -1.33224500e+000
 -1.29791300e+000
 -1.27853400e+000
 -1.31408700e+000
 -1.29547100e+000
 -1.31515500e+000
 -1.29898100e+000
 -1.33804300e+000
 -1.26861600e+000
 -1.29089400e+000
 -1.31027200e+000
 -1.35711700e+000
 -1.37878400e+000
 -1.28295900e+000
 -1.20773300e+000
 -1.31927500e+000
 -1.30950900e+000
 -1.35223400e+000
 -1.35757400e+000
 -1.23199500e+000
 -1.22558600e+000
 -1.25488300e+000
 -1.28875700e+000
 -1.20727500e+000
 -1.22314500e+000
 -1.28051800e+000
 -1.21826200e+000
 -1.27166700e+000
 -1.32080100e+000
 -1.26449600e+000
 -1.23504600e+000
 -1.15295400e+000
 -1.18988000e+000
 -1.18286100e+000
 -1.22100800e+000
 -1.34368900e+000
 -1.23413100e+000
 -1.10183700e+000
 -1.19552600e+000
 -1.29348800e+000
 -1.16348300e+000
 -1.10961900e+000
 -1.20834400e+000
 -1.18179300e+000
 -1.18331900e+000
 -1.11923200e+000
 -1.13891600e+000
 -1.11282300e+000
 -1.07482900e+000
 -1.05590800e+000
 -1.10946700e+000
 -1.15554800e+000
 -1.13876300e+000
 -1.09771700e+000
 -1.09451300e+000
 -1.05087300e+000
 -1.05941800e+000
 -1.02508500e+000
 -1.06918300e+000
 -1.09848000e+000
 -1.08932500e+000
 -1.12945600e+000
 -1.07360800e+000
 -1.04049700e+000
 -1.01806600e+000
 -1.06704700e+000
 -1.02600100e+000
 -1.00997900e+000
 -9.46350000e-001
 -9.60999000e-001
 -1.00509600e+000
 -1.01196300e+000
 -9.95636000e-001
 -9.02863000e-001
 -9.18579000e-001
 -8.65936000e-001
 -8.49304000e-001
 -8.59222000e-001
 -8.78143000e-001
 -8.88977000e-001
 -9.02863000e-001
 -8.76465000e-001
 -9.19495000e-001
 -8.07800000e-001
 -8.10394000e-001
 -7.60956000e-001
 -7.38831000e-001
 -7.87201000e-001
 -7.48596000e-001
 -7.29065000e-001
 -7.42187000e-001
 -7.30133000e-001
 -7.27539000e-001
 -6.76117000e-001
 -7.26318000e-001
 -7.04498000e-001
 -7.00684000e-001
 -6.99310000e-001
 -6.59790000e-001
 -6.88782000e-001
 -6.45905000e-001
 -6.68030000e-001
 -6.92139000e-001
 -6.18896000e-001
 -5.49316000e-001
 -6.09283000e-001
 -6.12793000e-001
 -5.89142000e-001
 -5.79071000e-001
 -5.53741000e-001
 -5.69305000e-001
 -5.36499000e-001
 -5.39551000e-001
 -4.92096000e-001
 -5.22766000e-001
 -5.07965000e-001
 -5.47638000e-001
 -5.33295000e-001
 -4.71191000e-001
 -4.68445000e-001
 -4.60510000e-001
 -4.92554000e-001
 -4.37317000e-001
 -4.27094000e-001
 -4.46320000e-001
 -4.77295000e-001
 -4.30298000e-001
 -4.63104000e-001
 -5.23071000e-001
 -4.96521000e-001
 -5.11169000e-001
 -5.01862000e-001
 -4.78821000e-001
 -5.21240000e-001
 -4.99878000e-001
 -4.88129000e-001
 -5.27039000e-001
 -5.17426000e-001
 -5.38635000e-001
 -5.59692000e-001
 -5.72510000e-001
 -6.26831000e-001
 -6.19202000e-001
 -6.71997000e-001
 -7.09076000e-001
 -7.04346000e-001
 -7.06177000e-001
 -7.07245000e-001
 -7.71637000e-001
 -7.68127000e-001
 -8.44574000e-001
 -8.08411000e-001
 -8.25653000e-001
 -8.43201000e-001
 -9.05457000e-001
 -9.12476000e-001
 -9.66034000e-001
 -9.50470000e-001
 -9.14764000e-001
 -9.24377000e-001
 -9.75952000e-001
 -9.51385000e-001
 -9.68628000e-001
 -1.02554300e+000
 -1.07620200e+000
 -1.13067600e+000
 -1.10183700e+000
 -1.11984300e+000
 -1.12319900e+000
 -1.10336300e+000
 -1.16134600e+000
 -1.15631100e+000
 -1.21521000e+000
 -1.24435400e+000
 -1.30706800e+000
 -1.27456700e+000
 -1.25381500e+000
 -1.30462600e+000
 -1.32553100e+000
 -1.30905200e+000
 -1.26770000e+000
 -1.37435900e+000
 -1.31073000e+000
 -1.36993400e+000
 -1.37908900e+000
 -1.37207000e+000
 -1.38610800e+000
 -1.38351400e+000
 -1.34475700e+000
 -1.38107300e+000
 -1.42013500e+000
 -1.39816300e+000
 -1.43814100e+000
 -1.44973800e+000
 -1.47811900e+000
 -1.39297500e+000
 -1.38061500e+000
 -1.37283300e+000
 -1.47460900e+000
 -1.46682700e+000
 -1.49765000e+000
 -1.46225000e+000
 -1.48468000e+000
 -1.45568800e+000
 -1.50085400e+000
 -1.47979700e+000
 -1.44317600e+000
 -1.43508900e+000
 -1.40319800e+000
 -1.48132300e+000
 -1.46942100e+000
 -1.46011400e+000
 -1.42883300e+000
 -1.47399900e+000
 -1.51825000e+000
 -1.43936200e+000
 -1.50451700e+000
 -1.47003200e+000
 -1.42059300e+000
 -1.50634800e+000
 -1.51046800e+000
 -1.47720300e+000
 -1.47430400e+000
 -1.43539400e+000
 -1.43600500e+000
 -1.41906700e+000
 -1.44790600e+000
 -1.38137800e+000
 -1.41555800e+000
 -1.40838600e+000
 -1.43035900e+000
 -1.44393900e+000
 -1.44683800e+000
 -1.45568800e+000
 -1.51245100e+000
 -1.46606400e+000
 -1.47110000e+000
 -1.50466900e+000
 -1.51641800e+000
 -1.49414100e+000
 -1.47460900e+000
 -1.41799900e+000
 -1.44531200e+000
 -1.50116000e+000
 -1.49368300e+000
 -1.47125200e+000
 -1.51031500e+000
 -1.45034800e+000
 -1.47888200e+000
 -1.51062000e+000
 -1.50009200e+000
 -1.52343700e+000
 -1.48727400e+000
 -1.49551400e+000
 -1.50146500e+000
 -1.46926900e+000
 -1.54205300e+000
 -1.48757900e+000
 -1.52114900e+000
 -1.46606400e+000
 -1.48971600e+000
 -1.51901200e+000
 -1.53427100e+000
 -1.53228800e+000
 -1.53152500e+000
 -1.50711100e+000
 -1.55136100e+000
 -1.47674600e+000
 -1.51977500e+000
 -1.48742700e+000
 -1.49505600e+000
 -1.47522000e+000
 -1.48513800e+000
 -1.51443500e+000
 -1.43814100e+000
 -1.45294200e+000
 -1.49292000e+000
 -1.44485500e+000
 -1.51580800e+000
 -1.50192300e+000
 -1.53579700e+000
 -1.53137200e+000
 -1.46652200e+000
 -1.43554700e+000
 -1.47857700e+000
 -1.50741600e+000
 -1.47934000e+000
 -1.53518700e+000
 -1.46087600e+000
 -1.46087600e+000
 -1.49108900e+000
 -1.48483300e+000
 -1.48178100e+000
 -1.52023300e+000
 -1.48941000e+000
 -1.44470200e+000
 -1.44943200e+000
 -1.51992800e+000
 -1.52908300e+000
 -1.56372100e+000
 -1.52786300e+000
 -1.49276700e+000
 -1.48925800e+000
 -1.50711100e+000
 -1.50238000e+000
 -1.49322500e+000
 -1.48742700e+000
 -1.47537200e+000
 -1.49719200e+000
 -1.49063100e+000
 -1.51046800e+000
 -1.53549200e+000
 -1.46331800e+000
 -1.52404800e+000
 -1.48056000e+000
 -1.55883800e+000
 -1.50955200e+000
 -1.49536100e+000
 -1.54769900e+000
 -1.48010300e+000
 -1.50650000e+000
 -1.54876700e+000
 -1.55029300e+000
 -1.51840200e+000
 -1.54861500e+000
 -1.52969400e+000
 -1.46957400e+000
 -1.51245100e+000
 -1.50970500e+000
 -1.49276700e+000
 -1.48178100e+000
 -1.55227700e+000
 -1.50741600e+000
 -1.56860400e+000
 -1.55395500e+000
 -1.50329600e+000
 -1.49887100e+000
 -1.48300200e+000
 -1.50466900e+000
 -1.47338900e+000
 -1.46225000e+000
 -1.52359000e+000
 -1.47308300e+000
 -1.50238000e+000
 -1.53381300e+000
 -1.50528000e+000
 -1.51733400e+000
 -1.54480000e+000
 -1.52679400e+000
 -1.51092500e+000
 -1.46637000e+000
 -1.52069100e+000
 -1.54403700e+000
 -1.51382400e+000
 -1.50466900e+000
 -1.49246200e+000
 -1.51825000e+000
 -1.48834200e+000
 -1.46438600e+000
 -1.51748700e+000
 -1.51016200e+000
 -1.49505600e+000
 -1.51229900e+000
 -1.49658200e+000
 -1.53060900e+000
 -1.49765000e+000
 -1.56250000e+000
 -1.54708900e+000
 -1.52862500e+000
 -1.56372100e+000
 -1.50375400e+000
 -1.48788500e+000
 -1.53945900e+000
 -1.49612400e+000
 -1.51260400e+000
 -1.51992800e+000
 -1.49581900e+000
 -1.46606400e+000
 -1.46347000e+000
 -1.50192300e+000
 -1.44668600e+000
 -1.52832000e+000
 -1.56158400e+000
 -1.50680500e+000
 -1.51153600e+000
 -1.51428200e+000
 -1.52587900e+000
 -1.56173700e+000
 -1.51001000e+000
 -1.50100700e+000
 -1.52755700e+000
 -1.53213500e+000
 -1.52526900e+000
 -1.49459800e+000
 -1.55838000e+000
 -1.52450600e+000
 -1.61010700e+000
 -1.55258200e+000
 -1.51611300e+000
 -1.52725200e+000
 -1.54998800e+000
 -1.55365000e+000
 -1.55502300e+000
 -1.51779200e+000
 -1.52420000e+000
 -1.58676100e+000
 -1.59652700e+000
 -1.57333400e+000
 -1.53259300e+000
 -1.56585700e+000
 -1.53610200e+000
 -1.59408600e+000
 -1.60705600e+000
 -1.57363900e+000
 -1.54327400e+000
 -1.58905000e+000
 -1.62063600e+000
 -1.56021100e+000
 -1.60263100e+000
 -1.60598800e+000
 -1.62017800e+000
 -1.61926300e+000
 -1.58660900e+000
 -1.55914300e+000
 -1.58035300e+000
 -1.58309900e+000
 -1.60461400e+000
 -1.59942600e+000
 -1.62262000e+000
 -1.65802000e+000
 -1.62277200e+000
 -1.58859300e+000
 -1.60156200e+000
 -1.63147000e+000
 -1.63284300e+000
 -1.63803100e+000
 -1.56448400e+000
 -1.57806400e+000
 -1.56173700e+000
 -1.55151400e+000
 -1.62017800e+000
 -1.63162200e+000
 -1.60644500e+000
 -1.56982400e+000
 -1.64199800e+000
 -1.63391100e+000
 -1.66091900e+000
 -1.64108300e+000
 -1.63635300e+000
 -1.66015600e+000
 -1.61926300e+000
 -1.63909900e+000
 -1.60263100e+000
 -1.62048300e+000
 -1.64932300e+000
 -1.66259800e+000
 -1.59103400e+000
 -1.57775900e+000
 -1.62384000e+000
 -1.61941500e+000
 -1.59805300e+000
 -1.58920300e+000
 -1.62231400e+000
 -1.60522500e+000
 -1.64505000e+000
 -1.59744300e+000
 -1.64108300e+000
 -1.63436900e+000
 -1.66961700e+000
 -1.61636400e+000
 -1.64733900e+000
 -1.63818400e+000
 -1.59484900e+000
 -1.57775900e+000
 -1.64260900e+000
 -1.66702300e+000
 -1.62765500e+000
 -1.63223300e+000
 -1.64428700e+000
 -1.64749100e+000
 -1.65756200e+000
 -1.64352400e+000
 -1.63559000e+000
 -1.65329000e+000
 -1.64428700e+000
 -1.65557900e+000
 -1.69738800e+000
 -1.63833600e+000
 -1.67465200e+000
 -1.63223300e+000
 -1.64459200e+000
 -1.65817300e+000
 -1.62857100e+000
 -1.67800900e+000
 -1.62048300e+000
 -1.65237400e+000
 -1.65649400e+000
 -1.67984000e+000
 -1.64016700e+000
 -1.68518100e+000
 -1.65329000e+000
 -1.71142600e+000
 -1.68258700e+000
 -1.65802000e+000
 -1.61270100e+000
 -1.65100100e+000
 -1.65832500e+000
 -1.67450000e+000
 -1.62780800e+000
 -1.69845600e+000
 -1.70257600e+000
 -1.65863000e+000
 -1.63574200e+000
 -1.67633100e+000
 -1.65939300e+000
 -1.69448900e+000
 -1.70639000e+000
 -1.70806900e+000
 -1.68380700e+000
 -1.69799800e+000
 -1.65985100e+000
 -1.67068500e+000
 -1.66503900e+000
 -1.69494600e+000
 -1.62735000e+000
 -1.64291400e+000
 -1.66244500e+000
 -1.63574200e+000
 -1.67236300e+000
 -1.69052100e+000
 -1.65588400e+000
 -1.70318600e+000
 -1.72226000e+000
 -1.70318600e+000
 -1.69174200e+000
 -1.66641200e+000
 -1.66503900e+000
 -1.69189500e+000
 -1.68777500e+000
 -1.65344200e+000
 -1.68060300e+000
 -1.68975800e+000
 -1.61544800e+000
 -1.62307700e+000
 -1.66442900e+000
 -1.63559000e+000
 -1.69036900e+000
 -1.66793800e+000
 -1.71203600e+000
 -1.62948600e+000
 -1.66885400e+000
 -1.67007400e+000
 -1.66992200e+000
 -1.68670700e+000
 -1.67800900e+000
 -1.63360600e+000
 -1.68396000e+000
 -1.71432500e+000
 -1.65527300e+000
 -1.68197600e+000
 -1.69509900e+000
 -1.67419400e+000
 -1.68594400e+000
 -1.68914800e+000
 -1.65618900e+000
 -1.73812900e+000
 -1.69143700e+000
 -1.69281000e+000
 -1.69815100e+000
 -1.69418300e+000
 -1.73584000e+000
 -1.69067400e+000
 -1.66580200e+000
 -1.65267900e+000
 -1.68640100e+000
 -1.72561600e+000
 -1.67831400e+000
 -1.67617800e+000
 -1.62704500e+000
 -1.67556800e+000
 -1.68304400e+000
 -1.69952400e+000
 -1.70471200e+000
 -1.72988900e+000
 -1.68136600e+000
 -1.71157800e+000
 -1.71676600e+000
 -1.69250500e+000
 -1.69479400e+000
 -1.69494600e+000
 -1.66244500e+000
 -1.70745800e+000
 -1.65618900e+000
 -1.65435800e+000
 -1.68899500e+000
 -1.65832500e+000
 -1.66717500e+000
 -1.68533300e+000
 -1.70761100e+000
 -1.66641200e+000
 -1.67144800e+000
 -1.64749100e+000
 -1.68243400e+000
 -1.69952400e+000
 -1.67602500e+000
 -1.67602500e+000
 -1.67160000e+000
 -1.67480500e+000
 -1.72637900e+000
 -1.65008500e+000
 -1.65756200e+000
 -1.70501700e+000
 -1.64138800e+000
 -1.71646100e+000
 -1.69281000e+000
 -1.69372600e+000
 -1.71051000e+000
 -1.72943100e+000
 -1.72592200e+000
 -1.68136600e+000
 -1.72576900e+000
 -1.66549700e+000
 -1.67419400e+000
 -1.69815100e+000
 -1.66076700e+000
 -1.64627100e+000
 -1.72500600e+000
 -1.67984000e+000
 -1.72653200e+000
 -1.68945300e+000
 -1.71310400e+000
 -1.72668500e+000
 -1.65771500e+000
 -1.69067400e+000
 -1.71234100e+000
 -1.68136600e+000
 -1.73492400e+000
 -1.73965500e+000
 -1.75018300e+000
 -1.67114300e+000
 -1.69021600e+000
 -1.66030900e+000
 -1.72134400e+000
 -1.64901700e+000
 -1.68716400e+000
 -1.65496800e+000
 -1.64810200e+000
 -1.64016700e+000
 -1.71508800e+000
 -1.66992200e+000
 -1.64062500e+000
 -1.66900600e+000
 -1.64184600e+000
 -1.63497900e+000
 -1.63147000e+000
 -1.63909900e+000
 -1.58844000e+000
 -1.59805300e+000
 -1.60736100e+000
 -1.55517600e+000
 -1.58523600e+000
 -1.59408600e+000
 -1.59881600e+000
 -1.57516500e+000
 -1.57623300e+000
 -1.50466900e+000
 -1.48757900e+000
 -1.47811900e+000
 -1.44165000e+000
 -1.47705100e+000
 -1.45294200e+000
 -1.50451700e+000
 -1.44317600e+000
 -1.46438600e+000
 -1.41220100e+000
 -1.45660400e+000
 -1.46774300e+000
 -1.41876200e+000
 -1.37115500e+000
 -1.33667000e+000
 -1.31042500e+000
 -1.38824500e+000
 -1.35772700e+000
 -1.35696400e+000
 -1.38427700e+000
 -1.35376000e+000
 -1.36489900e+000
 -1.41555800e+000
 -1.34597800e+000
 -1.34628300e+000
 -1.37908900e+000
 -1.33331300e+000
 -1.28356900e+000
 -1.32278400e+000
 -1.31942700e+000
 -1.36093100e+000
 -1.39572100e+000
 -1.40029900e+000
 -1.40930200e+000
 -1.45202600e+000
 -1.36230500e+000
 -1.43661500e+000
 -1.44134500e+000
 -1.43585200e+000
 -1.39038100e+000
 -1.40136700e+000
 -1.35162400e+000
 -1.37649500e+000
 -1.40792800e+000
 -1.39785800e+000
 -1.46026600e+000
 -1.47247300e+000
 -1.48376500e+000
 -1.46011400e+000
 -1.42547600e+000
 -1.45233200e+000
 -1.48193400e+000
 -1.48223900e+000
 -1.46072400e+000
 -1.45690900e+000
 -1.49658200e+000
 -1.50985700e+000
 -1.50009200e+000
 -1.59271200e+000
 -1.54830900e+000
 -1.58691400e+000
 -1.59591700e+000
 -1.61102300e+000
 -1.62399300e+000
 -1.61926300e+000
 -1.63955700e+000
 -1.67388900e+000
 -1.68975800e+000
 -1.64932300e+000
 -1.64596600e+000
 -1.71035800e+000
 -1.74377400e+000
 -1.66473400e+000
 -1.74804700e+000
 -1.69433600e+000
 -1.76193200e+000
 -1.77505500e+000
 -1.71920800e+000
 -1.73095700e+000
 -1.75720200e+000
 -1.76757800e+000
 -1.78695700e+000
 -1.82266200e+000
 -1.84936500e+000
 -1.85104400e+000
 -1.87225300e+000
 -1.83380100e+000
 -1.83990500e+000
 -1.84631300e+000
 -1.84478800e+000
 -1.84600800e+000
 -1.82189900e+000
 -1.82327300e+000
 -1.81228600e+000
 -1.81655900e+000
 -1.79702800e+000
 -1.76101700e+000
 -1.80419900e+000
 -1.83563200e+000
 -1.84234600e+000
 -1.85958900e+000
 -1.83517500e+000
 -1.83609000e+000
 -1.81442300e+000
 -1.83486900e+000
 -1.85943600e+000
 -1.86142000e+000
 -1.82724000e+000
 -1.85180700e+000
 -1.85485800e+000
 -1.84768700e+000
 -1.81488000e+000
 -1.81060800e+000
 -1.80938700e+000
 -1.85089100e+000
 -1.84875500e+000
 -1.84738200e+000
 -1.83486900e+000
 -1.84295700e+000
 -1.88034100e+000
 -1.88797000e+000
 -1.89910900e+000
 -1.85211200e+000
 -1.84783900e+000
 -1.84478800e+000
 -1.84463500e+000
 -1.85485800e+000
 -1.86050400e+000
 -1.84402500e+000
 -1.83822600e+000
 -1.82540900e+000
 -1.78100600e+000
 -1.75659200e+000
 -1.73217800e+000
 -1.73461900e+000
 -1.68670700e+000
 -1.61712600e+000
 -1.57974200e+000
 -1.53762800e+000
 -1.47506700e+000
 -1.39785800e+000
 -1.30981400e+000
 -1.31134000e+000
 -1.30340600e+000
 -1.28097500e+000
 -1.25549300e+000
 -1.23214700e+000
 -1.12930300e+000
 -1.04415900e+000
 -9.50012000e-001
 -8.68988000e-001
 -7.52716000e-001
 -5.80139000e-001
 -4.16565000e-001
 -2.86255000e-001
 -5.44740000e-002
 1.35956000e-001
 4.01917000e-001
 5.62439000e-001
 7.05414000e-001
 9.44977000e-001
 1.16043100e+000
 1.35726900e+000
 1.55822800e+000
 1.66137700e+000
 1.76712000e+000
 1.77291900e+000
 1.65191700e+000
 1.43707300e+000
 1.01272600e+000
 5.23834000e-001
 5.44740000e-002
 -3.21808000e-001
 -6.75964000e-001
 -9.43146000e-001
 -1.12487800e+000
 -1.27700800e+000
 -1.45050000e+000
 -1.45706200e+000
 -1.43997200e+000
 -1.45416300e+000
 -1.42105100e+000
 -1.46133400e+000
 -1.51855500e+000
 -1.59744300e+000
 -1.66946400e+000
 -1.76422100e+000
 -1.81945800e+000
 -1.88888500e+000
 -1.96456900e+000
 -2.01614400e+000
 -2.05078100e+000
 -2.06100500e+000
 -2.05642700e+000
 -2.04834000e+000
 -2.05535900e+000
 -2.02087400e+000
 -1.97113000e+000
 -1.94519000e+000
 -1.98654200e+000
 -1.95526100e+000
 -1.92810100e+000
 -1.94244400e+000
 -1.89331100e+000
 -1.83624300e+000
 -1.83044400e+000
 -1.83517500e+000
 -1.81503300e+000
 -1.78390500e+000
 -1.76345800e+000
 -1.85455300e+000
 -1.81060800e+000
 -1.76010100e+000
 -1.82556200e+000
 -1.76467900e+000
 -1.77932700e+000
 -1.76971400e+000
 -1.72058100e+000
 -1.77261400e+000
 -1.79336500e+000
 -1.73095700e+000
 -1.77658100e+000
 -1.78878800e+000
 -1.79443400e+000
 -1.73568700e+000
 -1.77307100e+000
 -1.79580700e+000
 -1.76590000e+000
 -1.76864600e+000
 -1.80404700e+000
 -1.75628700e+000
 -1.71646100e+000
 -1.75216700e+000
 -1.77810700e+000
 -1.83883700e+000
 -1.81335400e+000
 -1.78039600e+000
 -1.76818800e+000
 -1.80816700e+000
 -1.82342500e+000
 -1.80023200e+000
 -1.74118000e+000
 -1.71752900e+000
 -1.72439600e+000
 -1.72149700e+000
 -1.75308200e+000
 -1.75811800e+000
 -1.76315300e+000
 -1.77200300e+000
 -1.77459700e+000
 -1.77337600e+000
 -1.79336500e+000
 -1.80862400e+000
 -1.82083100e+000
 -1.80984500e+000
 -1.78833000e+000
 -1.78268400e+000
 -1.79794300e+000
 -1.79763800e+000
 -1.81045500e+000
 -1.81274400e+000
 -1.77841200e+000
 -1.76055900e+000
 -1.77749600e+000
 -1.74713100e+000
 -1.72393800e+000
 -1.74758900e+000
 -1.73996000e+000
 -1.72683700e+000
 -1.71493500e+000
 -1.69998200e+000
 -1.68701200e+000
 -1.69601400e+000
 -1.64810200e+000
 -1.66351300e+000
 -1.67160000e+000
 -1.71722400e+000
 -1.70486500e+000
 -1.65817300e+000
 -1.66626000e+000
 -1.66549700e+000
 -1.67511000e+000
 -1.71173100e+000
 -1.71218900e+000
 -1.71493500e+000
 -1.68350200e+000
 -1.62078900e+000
 -1.60324100e+000
 -1.66000400e+000
 -1.66534400e+000
 -1.62689200e+000
 -1.56875600e+000
 -1.56250000e+000
 -1.61514300e+000
 -1.63085900e+000
 -1.61941500e+000
 -1.62139900e+000
 -1.67770400e+000
 -1.71951300e+000
 -1.66168200e+000
 -1.62414600e+000
 -1.64810200e+000
 -1.67907700e+000
 -1.65847800e+000
 -1.64245600e+000
 -1.62200900e+000
 -1.65588400e+000
 -1.64398200e+000
 -1.60080000e+000
 -1.55136100e+000
 -1.56311000e+000
 -1.57608000e+000
 -1.55685400e+000
 -1.58279400e+000
 -1.59515400e+000
 -1.56387300e+000
 -1.54647800e+000
 -1.58905000e+000
 -1.59942600e+000
 -1.58340500e+000
 -1.59042400e+000
 -1.58554100e+000
 -1.58950800e+000
 -1.57318100e+000
 -1.53549200e+000
 -1.56860400e+000
 -1.56341600e+000
 -1.55777000e+000
 -1.58355700e+000
 -1.62094100e+000
 -1.59286500e+000
 -1.56097400e+000
 -1.56723000e+000
 -1.55807500e+000
 -1.56860400e+000
 -1.60598800e+000
 -1.54861500e+000
 -1.54357900e+000
 -1.58569300e+000
 -1.52893100e+000
 -1.51382400e+000
 -1.49673500e+000
 -1.44317600e+000
 -1.47720300e+000
 -1.45584100e+000
 -1.43280000e+000
 -1.45065300e+000
 -1.40976000e+000
 -1.44516000e+000
 -1.40335100e+000
 -1.38931300e+000
 -1.40548700e+000
 -1.38351400e+000
 -1.41113300e+000
 -1.38183600e+000
 -1.40533400e+000
 -1.36322000e+000
 -1.36383100e+000
 -1.33483900e+000
 -1.31668100e+000
 -1.32476800e+000
 -1.32080100e+000
 -1.32400500e+000
 -1.32568400e+000
 -1.32293700e+000
 -1.27761800e+000
 -1.28509500e+000
 -1.24069200e+000
 -1.26617400e+000
 -1.25732400e+000
 -1.25640900e+000
 -1.24084500e+000
 -1.19293200e+000
 -1.17034900e+000
 -1.15341200e+000
 -1.13067600e+000
 -1.10809300e+000
 -1.07177700e+000
 -1.09527600e+000
 -1.09359700e+000
 -1.08352700e+000
 -1.08032200e+000
 -1.10168500e+000
 -1.07254000e+000
 -1.06979400e+000
 -1.03012100e+000
 -1.00265500e+000
 -1.02615400e+000
 -1.02905300e+000
 -1.00997900e+000
 -9.88922000e-001
 -9.70917000e-001
 -9.59167000e-001
 -8.96759000e-001
 -8.91266000e-001
 -8.93250000e-001
 -8.93250000e-001
 -8.99353000e-001
 -8.80280000e-001
 -8.50830000e-001
 -8.65784000e-001
 -8.78601000e-001
 -8.59222000e-001
 -8.50220000e-001
 -8.56171000e-001
 -8.50830000e-001
 -8.33130000e-001
 -8.37860000e-001
 -8.31451000e-001
 -8.52509000e-001
 -8.47015000e-001
 -8.35724000e-001
 -8.53119000e-001
 -8.23212000e-001
 -8.19092000e-001
 -8.13293000e-001
 -8.59985000e-001
 -8.55103000e-001
 -8.56628000e-001
 -8.78448000e-001
 -8.90961000e-001
 -8.83636000e-001
 -9.02405000e-001
 -8.91266000e-001
 -8.81042000e-001
 -8.65479000e-001
 -8.90198000e-001
 -8.98437000e-001
 -9.11407000e-001
 -9.22394000e-001
 -9.35669000e-001
 -9.62372000e-001
 -9.80377000e-001
 -9.92889000e-001
 -1.04293800e+000
 -1.08871500e+000
 -1.09146100e+000
 -1.12731900e+000
 -1.15905800e+000
 -1.14776600e+000
 -1.20605500e+000
 -1.19415300e+000
 -1.21170000e+000
 -1.27944900e+000
 -1.26922600e+000
 -1.30264300e+000
 -1.30722000e+000
 -1.34475700e+000
 -1.33621200e+000
 -1.35772700e+000
 -1.39114400e+000
 -1.45095800e+000
 -1.47399900e+000
 -1.43966700e+000
 -1.54052700e+000
 -1.55258200e+000
 -1.53900100e+000
 -1.53945900e+000
 -1.59256000e+000
 -1.61193800e+000
 -1.64810200e+000
 -1.69860800e+000
 -1.68594400e+000
 -1.68426500e+000
 -1.65710400e+000
 -1.59362800e+000
 -1.64154100e+000
 -1.68350200e+000
 -1.72119100e+000
 -1.74057000e+000
 -1.77536000e+000
 -1.76712000e+000
 -1.80496200e+000
 -1.84310900e+000
 -1.79809600e+000
 -1.76467900e+000
 -1.74179100e+000
 -1.73889200e+000
 -1.71981800e+000
 -1.74346900e+000
 -1.75338700e+000
 -1.76269500e+000
 -1.80618300e+000
 -1.79351800e+000
 -1.78527800e+000
 -1.81655900e+000
 -1.82067900e+000
 -1.85211200e+000
 -1.86172500e+000
 -1.89926100e+000
 -1.91604600e+000
 -1.92474400e+000
 -1.92062400e+000
 -1.91452000e+000
 -1.95663500e+000
 -2.00958300e+000
 -1.96777300e+000
 -1.93710300e+000
 -1.93649300e+000
 -1.97570800e+000
 -1.99340800e+000
 -1.95678700e+000
 -1.91009500e+000
 -1.85882600e+000
 -1.82540900e+000
 -1.80374100e+000
 -1.80587800e+000
 -1.78344700e+000
 -1.80419900e+000
 -1.81076000e+000
 -1.81182900e+000
 -1.80191000e+000
 -1.78634600e+000
 -1.80664100e+000
 -1.84005700e+000
 -1.86294600e+000
 -1.89819300e+000
 -1.93038900e+000
 -1.93618800e+000
 -1.91726700e+000
 -1.86294600e+000
 -1.83746300e+000
 -1.82983400e+000
 -1.84799200e+000
 -1.84600800e+000
 -1.84875500e+000
 -1.89086900e+000
 -1.90628100e+000
 -1.92718500e+000
 -1.95419300e+000
 -1.99127200e+000
 -2.00454700e+000
 -1.99066200e+000
 -1.97906500e+000
 -2.02957200e+000
 -2.06207300e+000
 -2.04467800e+000
 -2.00454700e+000
 -1.92459100e+000
 -1.86431900e+000
 -1.84921300e+000
 -1.86172500e+000
 -1.87332200e+000
 -1.90200800e+000
 -1.92672700e+000
 -1.95694000e+000
 -1.94732700e+000
 -1.91787700e+000
 -1.92794800e+000
 -1.90780600e+000
 -1.94412200e+000
 -1.97464000e+000
 -2.00058000e+000
 -1.99844400e+000
 -1.95297200e+000
 -1.96853600e+000
 -2.02453600e+000
 -2.01400800e+000
 -1.97433500e+000
 -2.02606200e+000
 -2.08694500e+000
 -2.01614400e+000
 -1.96090700e+000
 -1.98043800e+000
 -1.96487400e+000
 -1.90551800e+000
 -1.90887500e+000
 -1.89773600e+000
 -1.88934300e+000
 -1.89651500e+000
 -1.93344100e+000
 -1.98181200e+000
 -1.95816000e+000
 -1.94107100e+000
 -1.91635100e+000
 -1.90506000e+000
 -1.96517900e+000
 -2.03521700e+000
 -2.03262300e+000
 -1.97235100e+000
 -1.99539200e+000
 -2.08190900e+000
 -2.13729900e+000
 -2.04910300e+000
 -2.05429100e+000
 -2.09945700e+000
 -2.05551100e+000
 -1.97235100e+000
 -1.93100000e+000
 -1.88110400e+000
 -1.87713600e+000
 -1.90383900e+000
 -1.88766500e+000
 -1.89605700e+000
 -1.87423700e+000
 -1.89453100e+000
 -1.87835700e+000
 -1.83944700e+000
 -1.86203000e+000
 -1.91299400e+000
 -1.95907600e+000
 -1.97235100e+000
 -1.95953400e+000
 -1.93893400e+000
 -1.92657500e+000
 -1.92382800e+000
 -1.94061300e+000
 -2.00744600e+000
 -1.99035600e+000
 -1.93801900e+000
 -1.96792600e+000
 -1.98318500e+000
 -1.99569700e+000
 -1.97906500e+000
 -1.91848800e+000
 -1.88583400e+000
 -1.90017700e+000
 -1.91757200e+000
 -1.94061300e+000
 -1.96243300e+000
 -1.97219800e+000
 -1.93954500e+000
 -1.94625900e+000
 -1.99203500e+000
 -2.04711900e+000
 -2.03292800e+000
 -1.98883100e+000
 -2.06314100e+000
 -2.08435100e+000
 -2.04742400e+000
 -2.04757700e+000
 -2.11654700e+000
 -2.04727200e+000
 -2.00256300e+000
 -2.06115700e+000
 -1.97280900e+000
 -1.91375700e+000
 -1.92398100e+000
 -1.94442700e+000
 -1.97982800e+000
 -1.95587200e+000
 -1.90353400e+000
 -1.85119600e+000
 -1.89392100e+000
 -1.89682000e+000
 -1.90795900e+000
 -1.93817100e+000
 -2.00302100e+000
 -1.98715200e+000
 -1.95510900e+000
 -1.95968600e+000
 -1.99554400e+000
 -1.99523900e+000
 -2.01156600e+000
 -1.92810100e+000
 -1.93313600e+000
 -1.98684700e+000
 -2.03323400e+000
 -2.01919600e+000
 -1.98440600e+000
 -1.97860700e+000
 -2.04544100e+000
 -2.05780000e+000
 -2.02652000e+000
 -2.03277600e+000
 -2.08801300e+000
 -2.05612200e+000
 -2.00912500e+000
 -2.05749500e+000
 -1.99371300e+000
 -1.90353400e+000
 -1.97937000e+000
 -2.01461800e+000
 -2.00851400e+000
 -2.01171900e+000
 -2.04757700e+000
 -1.94610600e+000
 -1.99203500e+000
 -2.01614400e+000
 -1.94381700e+000
 -2.01446500e+000
 -2.02606200e+000
 -2.05368000e+000
 -2.04116800e+000
 -2.01568600e+000
 -2.05200200e+000
 -2.02865600e+000
 -2.05535900e+000
 -2.02743500e+000
 -1.97296100e+000
 -1.93710300e+000
 -2.02133200e+000
 -1.98608400e+000
 -1.97647100e+000
 -1.97753900e+000
 -1.93801900e+000
 -2.01843300e+000
 -1.95098900e+000
 -2.02774000e+000
 -2.02911400e+000
 -1.98837300e+000
 -2.03476000e+000
 -2.00088500e+000
 -2.03949000e+000
 -2.05246000e+000
 -1.97814900e+000
 -2.05490100e+000
 -2.02179000e+000
 -2.01553300e+000
 -2.05642700e+000
 -2.04864500e+000
 -2.00637800e+000
 -2.05978400e+000
 -2.02499400e+000
 -2.02224700e+000
 -2.08496100e+000
 -2.04620400e+000
 -2.10083000e+000
 -2.07962000e+000
 -2.03628500e+000
 -2.12188700e+000
 -2.10647600e+000
 -2.08343500e+000
 -2.14569100e+000
 -2.05917400e+000
 -2.06085200e+000
 -2.07611100e+000
 -2.02835100e+000
 -2.05856300e+000
 -1.97265600e+000
 -1.93405200e+000
 -1.89300500e+000
 -1.98074300e+000
 -1.94641100e+000
 -2.04101600e+000
 -1.98898300e+000
 -2.08709700e+000
 -1.99951200e+000
 -2.09335300e+000
 -2.01751700e+000
 -2.08374000e+000
 -2.01782200e+000
 -2.00271600e+000
 -2.06481900e+000
 -2.01110800e+000
 -2.05963100e+000
 -2.07168600e+000
 -1.96884200e+000
 -1.99905400e+000
 -2.09152200e+000
 -2.08358800e+000
 -2.01705900e+000
 -2.03979500e+000
 -2.07855200e+000
 -2.11120600e+000
 -2.06588700e+000
 -2.04818700e+000
 -2.02179000e+000
 -2.06893900e+000
 -2.11273200e+000
 -2.08847000e+000
 -2.06558200e+000
 -2.06832900e+000
 -2.09335300e+000
 -2.14721700e+000
 -2.15286300e+000
 -2.08725000e+000
 -2.04055800e+000
 -2.01934800e+000
 -2.02728300e+000
 -2.09381100e+000
 -2.12677000e+000
 -2.14004500e+000
 -2.11105300e+000
 -2.05337500e+000
 -2.11532600e+000
 -2.16552700e+000
 -2.18414300e+000
 -2.10342400e+000
 -2.13256800e+000
 -2.16644300e+000
 -2.16278100e+000
 -2.13607800e+000
 -2.10327100e+000
 -2.12951700e+000
 -2.12692300e+000
 -2.10159300e+000
 -2.10708600e+000
 -2.08328200e+000
 -2.04376200e+000
 -1.99478100e+000
 -2.02072100e+000
 -2.08313000e+000
 -2.12493900e+000
 -2.13760400e+000
 -2.10815400e+000
 -2.05001800e+000
 -2.01309200e+000
 -1.97143600e+000
 -1.95343000e+000
 -1.99050900e+000
 -2.02606200e+000
 -2.03674300e+000
 -2.07778900e+000
 -2.08328200e+000
 -2.06909200e+000
 -2.04956100e+000
 -2.04498300e+000
 -2.04498300e+000
 -2.06436200e+000
 -2.08953900e+000
 -2.11914100e+000
 -2.08328200e+000
 -2.04544100e+000
 -2.10678100e+000
 -2.08923300e+000
 -2.02407800e+000
 -2.06222500e+000
 -2.07351700e+000
 -2.07351700e+000
 -2.07366900e+000
 -2.10876500e+000
 -2.08053600e+000
 -2.09716800e+000
 -2.14111300e+000
 -2.15194700e+000
 -2.15988200e+000
 -2.14630100e+000
 -2.12753300e+000
 -2.10723900e+000
 -2.13272100e+000
 -2.14965800e+000
 -2.14462300e+000
 -2.10632300e+000
 -2.10113500e+000
 -2.08862300e+000
 -2.09030200e+000
 -2.07901000e+000
 -2.06543000e+000
 -2.09335300e+000
 -2.10571300e+000
 -2.06863400e+000
 -2.05993700e+000
 -2.10418700e+000
 -2.09075900e+000
 -2.06955000e+000
 -2.10388200e+000
 -2.11883500e+000
 -2.10845900e+000
 -2.07397500e+000
 -2.08358800e+000
 -2.08252000e+000
 -2.07428000e+000
 -2.11486800e+000
 -2.10784900e+000
 -2.04879800e+000
 -2.08374000e+000
 -2.10830700e+000
 -2.10296600e+000
 -2.10113500e+000
 -2.10418700e+000
 -2.14492800e+000
 -2.16674800e+000
 -2.13073700e+000
 -2.10510300e+000
 -2.18689000e+000
 -2.12249800e+000
 -2.19665500e+000
 -2.20092800e+000
 -2.12524400e+000
 -2.09671000e+000
 -2.10784900e+000
 -2.11715700e+000
 -2.07870500e+000
 -2.09350600e+000
 -2.11135900e+000
 -2.11349500e+000
 -2.12310800e+000
 -2.11685200e+000
 -2.11731000e+000
 -2.11959800e+000
 -2.13577300e+000
 -2.13394200e+000
 -2.13470500e+000
 -2.16461200e+000
 -2.11410500e+000
 -2.07000700e+000
 -2.10296600e+000
 -2.09121700e+000
 -2.05642700e+000
 -2.06100500e+000
 -2.13317900e+000
 -2.15805100e+000
 -2.08190900e+000
 -2.11425800e+000
 -2.15255700e+000
 -2.09671000e+000
 -2.11135900e+000
 -2.16827400e+000
 -2.14126600e+000
 -2.07672100e+000
 -2.10434000e+000
 -2.15179400e+000
 -2.11364700e+000
 -2.11364700e+000
 -2.17102100e+000
 -2.14126600e+000
 -2.09259000e+000
 -2.10174600e+000
 -2.13226300e+000
 -2.10250900e+000
 -2.04498300e+000
 -2.11471600e+000
 -2.13256800e+000
 -2.08877600e+000
 -2.09869400e+000
 -2.14599600e+000
 -2.09594700e+000
 -2.08297700e+000
 -2.15927100e+000
 -2.11837800e+000
 -2.08389300e+000
 -2.13699300e+000
 -2.08267200e+000
 -2.05917400e+000
 -2.13531500e+000
 -2.10861200e+000
 -2.08633400e+000
 -2.14813200e+000
 -2.13531500e+000
 -2.06298800e+000
 -2.14645400e+000
 -2.14614900e+000
 -2.10006700e+000
 -2.15591400e+000
 -2.08282500e+000
 -2.15179400e+000
 -2.14630100e+000
 -2.07885700e+000
 -2.10083000e+000
 -2.03552200e+000
 -2.03765900e+000
 -2.13913000e+000
 -2.09442100e+000
 -2.08633400e+000
 -2.14065600e+000
 -2.07656900e+000
 -2.11715700e+000
 -2.12463400e+000
 -2.04910300e+000
 -2.09426900e+000
 -2.12692300e+000
 -2.04025300e+000
 -2.07199100e+000
 -2.08892800e+000
 -2.03338600e+000
 -2.01690700e+000
 -2.07183800e+000
 -2.01797500e+000
 -2.00836200e+000
 -2.04666100e+000
 -1.96640000e+000
 -1.93252600e+000
 -2.02865600e+000
 -2.00836200e+000
 -1.95114100e+000
 -2.02316300e+000
 -2.01965300e+000
 -1.90353400e+000
 -1.84768700e+000
 -1.86294600e+000
 -1.90322900e+000
 -1.88598600e+000
 -1.86401400e+000
 -1.84799200e+000
 -1.81671100e+000
 -1.81167600e+000
 -1.80877700e+000
 -1.83456400e+000
 -1.83090200e+000
 -1.81533800e+000
 -1.77673300e+000
 -1.73111000e+000
 -1.72531100e+000
 -1.69540400e+000
 -1.67114300e+000
 -1.65817300e+000
 -1.64382900e+000
 -1.65786700e+000
 -1.64260900e+000
 -1.64520300e+000
 -1.65344200e+000
 -1.63726800e+000
 -1.65710400e+000
 -1.67419400e+000
 -1.66839600e+000
 -1.66793800e+000
 -1.65130600e+000
 -1.64062500e+000
 -1.64016700e+000
 -1.64062500e+000
 -1.62063600e+000
 -1.64230300e+000
 -1.67770400e+000
 -1.67785600e+000
 -1.66076700e+000
 -1.67266800e+000
 -1.68273900e+000
 -1.70593300e+000
 -1.71508800e+000
 -1.72287000e+000
 -1.68808000e+000
 -1.67190600e+000
 -1.65222200e+000
 -1.63330100e+000
 -1.65725700e+000
 -1.69998200e+000
 -1.72515900e+000
 -1.72576900e+000
 -1.72561600e+000
 -1.76116900e+000
 -1.73767100e+000
 -1.69189500e+000
 -1.72073400e+000
 -1.76696800e+000
 -1.76986700e+000
 -1.71295200e+000
 -1.71402000e+000
 -1.72531100e+000
 -1.78390500e+000
 -1.77246100e+000
 -1.75460800e+000
 -1.81488000e+000
 -1.81686400e+000
 -1.82922400e+000
 -1.90933200e+000
 -1.84280400e+000
 -1.95404100e+000
 -1.82449300e+000
 -1.86416600e+000
 -1.81381200e+000
 -1.91055300e+000
 -1.88751200e+000
 -1.92688000e+000
 -1.97036700e+000
 -1.91879300e+000
 -1.97830200e+000
 -1.99218700e+000
 -1.92810100e+000
 -1.99737500e+000
 -2.06314100e+000
 -2.06863400e+000
 -2.06802400e+000
 -2.03949000e+000
 -2.01049800e+000
 -2.03338600e+000
 -2.03918500e+000
 -2.04238900e+000
 -2.02224700e+000
 -2.04605100e+000
 -2.04528800e+000
 -2.01950100e+000
 -2.00668300e+000
 -1.99630700e+000
 -2.01217700e+000
 -2.00775100e+000
 -1.99447600e+000
 -2.01278700e+000
 -2.02117900e+000
 -1.98471100e+000
 -2.01934800e+000
 -2.00485200e+000
 -1.97357200e+000
 -1.97265600e+000
 -1.98822000e+000
 -1.99325600e+000
 -1.97326700e+000
 -1.94122300e+000
 -1.93008400e+000
 -1.93481400e+000
 -1.96502700e+000
 -1.94412200e+000
 -1.98196400e+000
 -2.00317400e+000
 -1.99142500e+000
 -1.95358300e+000
 -1.97250400e+000
 -1.97891200e+000
 -1.95068400e+000
 -1.96548500e+000
 -1.94931000e+000
 -1.98104900e+000
 -1.94778400e+000
 -1.95968600e+000
 -1.95877100e+000
 -1.93420400e+000
 -1.92443800e+000
 -1.91848800e+000
 -1.89178500e+000
 -1.87484700e+000
 -1.88385000e+000
 -1.86706500e+000
 -1.84143100e+000
 -1.82220500e+000
 -1.73782300e+000
 -1.72592200e+000
 -1.73873900e+000
 -1.64123500e+000
 -1.66656500e+000
 -1.59362800e+000
 -1.53091400e+000
 -1.44012500e+000
 -1.43737800e+000
 -1.42456100e+000
 -1.38809200e+000
 -1.33926400e+000
 -1.28402700e+000
 -1.24084500e+000
 -1.17294300e+000
 -1.06384300e+000
 -9.39941000e-001
 -8.56323000e-001
 -7.07092000e-001
 -5.01404000e-001
 -3.56445000e-001
 -1.71051000e-001
 3.90620000e-002
 2.43073000e-001
 5.19409000e-001
 7.08923000e-001
 8.67920000e-001
 1.07391400e+000
 1.26266500e+000
 1.48696900e+000
 1.65451000e+000
 1.78466800e+000
 1.84005700e+000
 1.73858600e+000
 1.61758400e+000
 1.16027800e+000
 6.63757000e-001
 2.97546000e-001
 -1.52588000e-001
 -5.58319000e-001
 -9.08203000e-001
 -1.12533600e+000
 -1.28860500e+000
 -1.43615700e+000
 -1.48147600e+000
 -1.43280000e+000
 -1.42898600e+000
 -1.36169400e+000
 -1.40625000e+000
 -1.44455000e+000
 -1.53213500e+000
 -1.53350800e+000
 -1.61239600e+000
 -1.74179100e+000
 -1.82403600e+000
 -1.89239500e+000
 -1.96823100e+000
 -2.05474900e+000
 -2.06909200e+000
 -2.03781100e+000
 -2.00927700e+000
 -2.05337500e+000
 -2.05383300e+000
 -2.03445400e+000
 -2.05047600e+000
 -2.00058000e+000
 -1.93847700e+000
 -1.91421500e+000
 -1.88751200e+000
 -1.86203000e+000
 -1.77810700e+000
 -1.70471200e+000
 -1.73111000e+000
 -1.75323500e+000
 -1.71157800e+000
 -1.69479400e+000
 -1.74285900e+000
 -1.70929000e+000
 -1.69479400e+000
 -1.75476100e+000
 -1.75659200e+000
 -1.70486500e+000
 -1.68930100e+000
 -1.72561600e+000
 -1.70181300e+000
 -1.67556800e+000
 -1.69174200e+000
 -1.70028700e+000
 -1.65832500e+000
 -1.70700100e+000
 -1.70883200e+000
 -1.66656500e+000
 -1.69418300e+000
 -1.72546400e+000
 -1.68533300e+000
 -1.69708300e+000
 -1.71798700e+000
 -1.65344200e+000
 -1.66717500e+000
 -1.68930100e+000
 -1.67861900e+000
 -1.68335000e+000
 -1.66381800e+000
 -1.66061400e+000
 -1.70028700e+000
 -1.67221100e+000
 -1.66503900e+000
 -1.69311500e+000
 -1.64138800e+000
 -1.63894700e+000
 -1.64093000e+000
 -1.62292500e+000
 -1.69479400e+000
 -1.69509900e+000
 -1.64413500e+000
 -1.63818400e+000
 -1.62399300e+000
 -1.62948600e+000
 -1.62994400e+000
 -1.62429800e+000
 -1.61850000e+000
 -1.58981300e+000
 -1.58508300e+000
 -1.60614000e+000
 -1.59851100e+000
 -1.57165500e+000
 -1.63070700e+000
 -1.62200900e+000
 -1.60995500e+000
 -1.61209100e+000
 -1.60446200e+000
 -1.61209100e+000
 -1.61315900e+000
 -1.58340500e+000
 -1.59500100e+000
 -1.57333400e+000
 -1.55304000e+000
 -1.54647800e+000
 -1.54586800e+000
 -1.53854400e+000
 -1.53137200e+000
 -1.55990600e+000
 -1.54617300e+000
 -1.57180800e+000
 -1.58889800e+000
 -1.57104500e+000
 -1.53518700e+000
 -1.54586800e+000
 -1.52008100e+000
 -1.53442400e+000
 -1.52053800e+000
 -1.51718100e+000
 -1.51611300e+000
 -1.52954100e+000
 -1.51336700e+000
 -1.52771000e+000
 -1.51535000e+000
 -1.55395500e+000
 -1.48635900e+000
 -1.52740500e+000
 -1.47964500e+000
 -1.49902300e+000
 -1.47598300e+000
 -1.51947000e+000
 -1.49887100e+000
 -1.50756800e+000
 -1.47827100e+000
 -1.42471300e+000
 -1.46987900e+000
 -1.43295300e+000
 -1.47644000e+000
 -1.45431500e+000
 -1.48803700e+000
 -1.47827100e+000
 -1.48757900e+000
 -1.45919800e+000
 -1.49063100e+000
 -1.45736700e+000
 -1.42334000e+000
 -1.45355200e+000
 -1.45904500e+000
 -1.44943200e+000
 -1.45202600e+000
 -1.45843500e+000
 -1.45294200e+000
 -1.46804800e+000
 -1.41647300e+000
 -1.39205900e+000
 -1.40625000e+000
 -1.39633200e+000
 -1.37222300e+000
 -1.39053300e+000
 -1.38626100e+000
 -1.38504000e+000
 -1.37893700e+000
 -1.37939500e+000
 -1.37130700e+000
 -1.36978100e+000
 -1.38351400e+000
 -1.36657700e+000
 -1.33575400e+000
 -1.32034300e+000
 -1.30798300e+000
 -1.29699700e+000
 -1.30737300e+000
 -1.31912200e+000
 -1.31729100e+000
 -1.31317100e+000
 -1.28418000e+000
 -1.27334600e+000
 -1.27304100e+000
 -1.26663200e+000
 -1.27365100e+000
 -1.27243000e+000
 -1.26876800e+000
 -1.26510600e+000
 -1.27258300e+000
 -1.24801600e+000
 -1.24649000e+000
 -1.25137300e+000
 -1.24206500e+000
 -1.22863800e+000
 -1.20910600e+000
 -1.19033800e+000
 -1.15493800e+000
 -1.17630000e+000
 -1.20559700e+000
 -1.16622900e+000
 -1.14624000e+000
 -1.16577100e+000
 -1.12213100e+000
 -1.08963000e+000
 -1.10366800e+000
 -1.09314000e+000
 -1.10519400e+000
 -1.11999500e+000
 -1.04660000e+000
 -1.02523800e+000
 -9.85870000e-001
 -1.00311300e+000
 -9.86786000e-001
 -9.88617000e-001
 -9.77325000e-001
 -9.96552000e-001
 -9.70001000e-001
 -9.92126000e-001
 -9.56573000e-001
 -9.58862000e-001
 -9.49554000e-001
 -9.41620000e-001
 -9.30176000e-001
 -8.95538000e-001
 -8.52509000e-001
 -8.23975000e-001
 -8.23212000e-001
 -8.34961000e-001
 -8.08868000e-001
 -8.01697000e-001
 -8.02002000e-001
 -8.11310000e-001
 -8.32977000e-001
 -7.92694000e-001
 -7.79724000e-001
 -7.82318000e-001
 -7.48901000e-001
 -7.37457000e-001
 -7.24945000e-001
 -7.09534000e-001
 -7.04956000e-001
 -6.94427000e-001
 -6.87714000e-001
 -6.37665000e-001
 -6.65741000e-001
 -6.51550000e-001
 -6.75354000e-001
 -6.25763000e-001
 -6.36444000e-001
 -6.43616000e-001
 -6.17676000e-001
 -6.81763000e-001
 -6.19354000e-001
 -6.68640000e-001
 -6.24237000e-001
 -6.42242000e-001
 -6.47736000e-001
 -6.03180000e-001
 -6.54907000e-001
 -6.12640000e-001
 -6.35071000e-001
 -6.50635000e-001
 -6.17981000e-001
 -6.54297000e-001
 -6.39954000e-001
 -6.96259000e-001
 -6.88934000e-001
 -7.29523000e-001
 -7.51190000e-001
 -7.62939000e-001
 -7.64008000e-001
 -8.14819000e-001
 -8.00629000e-001
 -8.26416000e-001
 -8.24890000e-001
 -8.72498000e-001
 -9.38568000e-001
 -9.50470000e-001
 -9.50165000e-001
 -9.29260000e-001
 -9.80682000e-001
 -1.02752700e+000
 -1.04629500e+000
 -1.07543900e+000
 -1.10260000e+000
 -1.12793000e+000
 -1.16333000e+000
 -1.18972800e+000
 -1.21078500e+000
 -1.21841400e+000
 -1.23794600e+000
 -1.21078500e+000
 -1.26220700e+000
 -1.29531900e+000
 -1.33178700e+000
 -1.34185800e+000
 -1.34017900e+000
 -1.35742200e+000
 -1.35284400e+000
 -1.39373800e+000
 -1.40182500e+000
 -1.44943200e+000
 -1.48559600e+000
 -1.46423300e+000
 -1.50070200e+000
 -1.51229900e+000
 -1.48880000e+000
 -1.49795500e+000
 -1.52008100e+000
 -1.51519800e+000
 -1.57043500e+000
 -1.56173700e+000
 -1.53595000e+000
 -1.58447300e+000
 -1.57913200e+000
 -1.61743200e+000
 -1.61651600e+000
 -1.63818400e+000
 -1.64825400e+000
 -1.62887600e+000
 -1.66900600e+000
 -1.65359500e+000
 -1.64993300e+000
 -1.64428700e+000
 -1.66168200e+000
 -1.62368800e+000
 -1.64428700e+000
 -1.64062500e+000
 -1.65893600e+000
 -1.64932300e+000
 -1.61300700e+000
 -1.63559000e+000
 -1.64627100e+000
 -1.73126200e+000
 -1.67678800e+000
 -1.69662500e+000
 -1.65710400e+000
 -1.67495700e+000
 -1.65313700e+000
 -1.67358400e+000
 -1.64154100e+000
 -1.66809100e+000
 -1.63177500e+000
 -1.67038000e+000
 -1.63711500e+000
 -1.65023800e+000
 -1.66030900e+000
 -1.66015600e+000
 -1.69860800e+000
 -1.66366600e+000
 -1.71997100e+000
 -1.66183500e+000
 -1.70181300e+000
 -1.67633100e+000
 -1.68701200e+000
 -1.65618900e+000
 -1.70135500e+000
 -1.68930100e+000
 -1.70364400e+000
 -1.67419400e+000
 -1.65359500e+000
 -1.63894700e+000
 -1.68853800e+000
 -1.64260900e+000
 -1.67923000e+000
 -1.65054300e+000
 -1.68106100e+000
 -1.67755100e+000
 -1.66061400e+000
 -1.69113200e+000
 -1.66763300e+000
 -1.70761100e+000
 -1.68029800e+000
 -1.71279900e+000
 -1.66778600e+000
 -1.67816200e+000
 -1.65390000e+000
 -1.66595500e+000
 -1.67068500e+000
 -1.65664700e+000
 -1.67144800e+000
 -1.66076700e+000
 -1.68777500e+000
 -1.64459200e+000
 -1.68411300e+000
 -1.69448900e+000
 -1.71127300e+000
 -1.68289200e+000
 -1.66397100e+000
 -1.64672900e+000
 -1.63879400e+000
 -1.64276100e+000
 -1.62872300e+000
 -1.66091900e+000
 -1.63894700e+000
 -1.64505000e+000
 -1.63543700e+000
 -1.67419400e+000
 -1.63147000e+000
 -1.67404200e+000
 -1.66381800e+000
 -1.66351300e+000
 -1.67511000e+000
 -1.67694100e+000
 -1.68228100e+000
 -1.64886500e+000
 -1.65969800e+000
 -1.66519200e+000
 -1.64230300e+000
 -1.67297400e+000
 -1.63253800e+000
 -1.68746900e+000
 -1.67587300e+000
 -1.68289200e+000
 -1.65466300e+000
 -1.65618900e+000
 -1.67434700e+000
 -1.68106100e+000
 -1.69570900e+000
 -1.67175300e+000
 -1.68045000e+000
 -1.64642300e+000
 -1.67678800e+000
 -1.63986200e+000
 -1.63833600e+000
 -1.67297400e+000
 -1.65237400e+000
 -1.66183500e+000
 -1.62994400e+000
 -1.66702300e+000
 -1.61270100e+000
 -1.66702300e+000
 -1.67327900e+000
 -1.67678800e+000
 -1.67129500e+000
 -1.65313700e+000
 -1.67251600e+000
 -1.64505000e+000
 -1.65405300e+000
 -1.62979100e+000
 -1.68014500e+000
 -1.67251600e+000
 -1.65374800e+000
 -1.65786700e+000
 -1.62887600e+000
 -1.66549700e+000
 -1.64535500e+000
 -1.66030900e+000
 -1.64154100e+000
 -1.68502800e+000
 -1.68731700e+000
 -1.66412400e+000
 -1.69998200e+000
 -1.68853800e+000
 -1.67343100e+000
 -1.63833600e+000
 -1.65420500e+000
 -1.62399300e+000
 -1.63116500e+000
 -1.64260900e+000
 -1.64398200e+000
 -1.65435800e+000
 -1.62658700e+000
 -1.64718600e+000
 -1.62185700e+000
 -1.62475600e+000
 -1.66198700e+000
 -1.65039100e+000
 -1.65664700e+000
 -1.62704500e+000
 -1.67007400e+000
 -1.66229200e+000
 -1.63986200e+000
 -1.64352400e+000
 -1.61605800e+000
 -1.63681000e+000
 -1.62368800e+000
 -1.65115400e+000
 -1.62216200e+000
 -1.62109400e+000
 -1.66564900e+000
 -1.66015600e+000
 -1.68060300e+000
 -1.63955700e+000
 -1.68136600e+000
 -1.61407500e+000
 -1.64001500e+000
 -1.63940400e+000
 -1.67251600e+000
 -1.63406400e+000
 -1.65405300e+000
 -1.64245600e+000
 -1.66793800e+000
 -1.62597700e+000
 -1.65145900e+000
 -1.65893600e+000
 -1.61544800e+000
 -1.65313700e+000
 -1.62231400e+000
 -1.65481600e+000
 -1.65481600e+000
 -1.65420500e+000
 -1.65664700e+000
 -1.63070700e+000
 -1.67923000e+000
 -1.66030900e+000
 -1.61361700e+000
 -1.67160000e+000
 -1.65069600e+000
 -1.61880500e+000
 -1.63360600e+000
 -1.66610700e+000
 -1.66915900e+000
 -1.63894700e+000
 -1.61941500e+000
 -1.65588400e+000
 -1.64672900e+000
 -1.62368800e+000
 -1.60156200e+000
 -1.63467400e+000
 -1.67373700e+000
 -1.64413500e+000
 -1.61132800e+000
 -1.61605800e+000
 -1.61743200e+000
 -1.64993300e+000
 -1.64306600e+000
 -1.62979100e+000
 -1.61163300e+000
 -1.62735000e+000
 -1.65527300e+000
 -1.65924100e+000
 -1.64611800e+000
 -1.60400400e+000
 -1.61605800e+000
 -1.62796000e+000
 -1.58676100e+000
 -1.64291400e+000
 -1.68869000e+000
 -1.66153000e+000
 -1.61987300e+000
 -1.61865200e+000
 -1.67465200e+000
 -1.63040200e+000
 -1.59347500e+000
 -1.62078900e+000
 -1.62536600e+000
 -1.61514300e+000
 -1.63436900e+000
 -1.64688100e+000
 -1.62567100e+000
 -1.62048300e+000
 -1.65741000e+000
 -1.62643400e+000
 -1.61392200e+000
 -1.63818400e+000
 -1.59072900e+000
 -1.62597700e+000
 -1.59561200e+000
 -1.58905000e+000
 -1.63665800e+000
 -1.61102300e+000
 -1.61514300e+000
 -1.60659800e+000
 -1.62948600e+000
 -1.60354600e+000
 -1.61041300e+000
 -1.62857100e+000
 -1.59957900e+000
 -1.64199800e+000
 -1.62765500e+000
 -1.60720800e+000
 -1.60553000e+000
 -1.60186800e+000
 -1.58096300e+000
 -1.58126800e+000
 -1.59500100e+000
 -1.62597700e+000
 -1.61605800e+000
 -1.59317000e+000
 -1.60583500e+000
 -1.61224400e+000
 -1.64733900e+000
 -1.62429800e+000
 -1.62185700e+000
 -1.61163300e+000
 -1.59591700e+000
 -1.62948600e+000
 -1.60080000e+000
 -1.57104500e+000
 -1.57547000e+000
 -1.60553000e+000
 -1.57684300e+000
 -1.59545900e+000
 -1.60263100e+000
 -1.61895800e+000
 -1.61209100e+000
 -1.62323000e+000
 -1.61132800e+000
 -1.63528400e+000
 -1.64352400e+000
 -1.62902800e+000
 -1.57363900e+000
 -1.59057600e+000
 -1.61972000e+000
 -1.61804200e+000
 -1.63894700e+000
 -1.61193800e+000
 -1.60095200e+000
 -1.55075100e+000
 -1.57379200e+000
 -1.58645600e+000
 -1.59210200e+000
 -1.60507200e+000
 -1.59744300e+000
 -1.61377000e+000
 -1.58020000e+000
 -1.58523600e+000
 -1.59347500e+000
 -1.58996600e+000
 -1.58676100e+000
 -1.58859300e+000
 -1.57150300e+000
 -1.57119800e+000
 -1.59011800e+000
 -1.56280500e+000
 -1.54876700e+000
 -1.55975300e+000
 -1.56814600e+000
 -1.56677200e+000
 -1.59286500e+000
 -1.56005900e+000
 -1.55777000e+000
 -1.61315900e+000
 -1.58721900e+000
 -1.64077800e+000
 -1.63940400e+000
 -1.58157300e+000
 -1.63925200e+000
 -1.62338300e+000
 -1.57424900e+000
 -1.58691400e+000
 -1.58126800e+000
 -1.58981300e+000
 -1.59408600e+000
 -1.62200900e+000
 -1.61300700e+000
 -1.61102300e+000
 -1.57745400e+000
 -1.61621100e+000
 -1.60858200e+000
 -1.62872300e+000
 -1.61087000e+000
 -1.63208000e+000
 -1.59439100e+000
 -1.57974200e+000
 -1.60095200e+000
 -1.58111600e+000
 -1.57806400e+000
 -1.57791100e+000
 -1.57211300e+000
 -1.58157300e+000
 -1.58508300e+000
 -1.54754600e+000
 -1.56616200e+000
 -1.58371000e+000
 -1.58248900e+000
 -1.61468500e+000
 -1.59942600e+000
 -1.56707800e+000
 -1.56417800e+000
 -1.58126800e+000
 -1.57486000e+000
 -1.56601000e+000
 -1.52404800e+000
 -1.53091400e+000
 -1.56005900e+000
 -1.59194900e+000
 -1.55380200e+000
 -1.55471800e+000
 -1.56936600e+000
 -1.57669100e+000
 -1.57608000e+000
 -1.59362800e+000
 -1.57836900e+000
 -1.55426000e+000
 -1.57424900e+000
 -1.59164400e+000
 -1.58569300e+000
 -1.58203100e+000
 -1.58233600e+000
 -1.56967200e+000
 -1.54129000e+000
 -1.58462500e+000
 -1.55899000e+000
 -1.55426000e+000
 -1.58065800e+000
 -1.57608000e+000
 -1.57165500e+000
 -1.57257100e+000
 -1.59927400e+000
 -1.58004800e+000
 -1.56448400e+000
 -1.55624400e+000
 -1.54800400e+000
 -1.54739400e+000
 -1.55563400e+000
 -1.56417800e+000
 -1.57455400e+000
 -1.58584600e+000
 -1.60293600e+000
 -1.58233600e+000
 -1.55868500e+000
 -1.54968300e+000
 -1.54022200e+000
 -1.57333400e+000
 -1.58783000e+000
 -1.57562300e+000
 -1.55075100e+000
 -1.54678300e+000
 -1.57165500e+000
 -1.56982400e+000
 -1.57165500e+000
 -1.55395500e+000
 -1.56707800e+000
 -1.55456500e+000
 -1.54144300e+000
 -1.55715900e+000
 -1.57547000e+000
 -1.58172600e+000
 -1.56860400e+000
 -1.55029300e+000
 -1.55334500e+000
 -1.56478900e+000
 -1.58142100e+000
 -1.60186800e+000
 -1.56021100e+000
 -1.55960100e+000
 -1.56112700e+000
 -1.58050500e+000
 -1.52755700e+000
 -1.51245100e+000
 -1.52023300e+000
 -1.56112700e+000
 -1.56799300e+000
 -1.58737200e+000
 -1.55044600e+000
 -1.54113800e+000
 -1.51046800e+000
 -1.53396600e+000
 -1.54129000e+000
 -1.57913200e+000
 -1.55288700e+000
 -1.55685400e+000
 -1.56311000e+000
 -1.54693600e+000
 -1.52587900e+000
 -1.53701800e+000
 -1.55120800e+000
 -1.54357900e+000
 -1.52389500e+000
 -1.51504500e+000
 -1.53976400e+000
 -1.53320300e+000
 -1.53366100e+000
 -1.54663100e+000
 -1.53778100e+000
 -1.55487100e+000
 -1.52908300e+000
 -1.51550300e+000
 -1.53427100e+000
 -1.50787400e+000
 -1.52816800e+000
 -1.50817900e+000
 -1.47399900e+000
 -1.50863600e+000
 -1.51626600e+000
 -1.48437500e+000
 -1.50192300e+000
 -1.48086500e+000
 -1.47979700e+000
 -1.49337800e+000
 -1.50009200e+000
 -1.49490400e+000
 -1.49704000e+000
 -1.48712200e+000
 -1.47506700e+000
 -1.46331800e+000
 -1.43508900e+000
 -1.43386800e+000
 -1.42288200e+000
 -1.40899700e+000
 -1.36856100e+000
 -1.37817400e+000
 -1.39511100e+000
 -1.38946500e+000
 -1.37512200e+000
 -1.36779800e+000
 -1.36520400e+000
 -1.36062600e+000
 -1.35482800e+000
 -1.33743300e+000
 -1.30615200e+000
 -1.30798300e+000
 -1.29577600e+000
 -1.28799400e+000
 -1.28372200e+000
 -1.24069200e+000
 -1.25839200e+000
 -1.26525900e+000
 -1.23458900e+000
 -1.18087800e+000
 -1.19125400e+000
 -1.19735700e+000
 -1.17813100e+000
 -1.18072500e+000
 -1.17324800e+000
 -1.14883400e+000
 -1.08856200e+000
 -1.10031100e+000
 -1.07513400e+000
 -1.08062700e+000
 -1.03225700e+000
 -1.03332500e+000
 -1.01028400e+000
 -1.00082400e+000
 -1.01226800e+000
 -1.04904200e+000
 -1.04675300e+000
 -1.03241000e+000
 -1.03378300e+000
 -1.05957000e+000
 -1.07040400e+000
 -1.09634400e+000
 -1.12899800e+000
 -1.10580400e+000
 -1.10687300e+000
 -1.08703600e+000
 -1.06948900e+000
 -1.08779900e+000
 -1.09390300e+000
 -1.12289400e+000
 -1.16638200e+000
 -1.13739000e+000
 -1.09619100e+000
 -1.07803300e+000
 -1.11648600e+000
 -1.14364600e+000
 -1.17218000e+000
 -1.16226200e+000
 -1.16226200e+000
 -1.17797900e+000
 -1.15631100e+000
 -1.13052400e+000
 -1.14715600e+000
 -1.15295400e+000
 -1.16668700e+000
 -1.20178200e+000
 -1.23382600e+000
 -1.21582000e+000
 -1.27029400e+000
 -1.25335700e+000
 -1.27899200e+000
 -1.30416900e+000
 -1.30218500e+000
 -1.31607100e+000
 -1.30416900e+000
 -1.30600000e+000
 -1.29867600e+000
 -1.28021200e+000
 -1.33743300e+000
 -1.33895900e+000
 -1.36871300e+000
 -1.46240200e+000
 -1.42044100e+000
 -1.41265900e+000
 -1.45294200e+000
 -1.48452800e+000
 -1.47308300e+000
 -1.42837500e+000
 -1.43188500e+000
 -1.48544300e+000
 -1.50497400e+000
 -1.52313200e+000
 -1.54190100e+000
 -1.55532800e+000
 -1.53121900e+000
 -1.49658200e+000
 -1.52175900e+000
 -1.53320300e+000
 -1.54815700e+000
 -1.50833100e+000
 -1.49032600e+000
 -1.51977500e+000
 -1.53915400e+000
 -1.56646700e+000
 -1.56097400e+000
 -1.57440200e+000
 -1.55395500e+000
 -1.51748700e+000
 -1.51596100e+000
 -1.51626600e+000
 -1.49002100e+000
 -1.53259300e+000
 -1.54647800e+000
 -1.52389500e+000
 -1.48513800e+000
 -1.43722500e+000
 -1.49902300e+000
 -1.55105600e+000
 -1.56204200e+000
 -1.52938800e+000
 -1.49688700e+000
 -1.46347000e+000
 -1.46194500e+000
 -1.46133400e+000
 -1.51321400e+000
 -1.51046800e+000
 -1.50878900e+000
 -1.52359000e+000
 -1.52267500e+000
 -1.52557400e+000
 -1.51092500e+000
 -1.50238000e+000
 -1.49627700e+000
 -1.49948100e+000
 -1.50085400e+000
 -1.47979700e+000
 -1.49353000e+000
 -1.47155800e+000
 -1.42501800e+000
 -1.45095800e+000
 -1.44302400e+000
 -1.36703500e+000
 -1.37420700e+000
 -1.35711700e+000
 -1.31271400e+000
 -1.29699700e+000
 -1.23565700e+000
 -1.17569000e+000
 -1.11770600e+000
 -1.02859500e+000
 -1.00952100e+000
 -9.92126000e-001
 -9.68323000e-001
 -9.20105000e-001
 -8.72040000e-001
 -8.63953000e-001
 -7.68738000e-001
 -6.58722000e-001
 -5.80444000e-001
 -4.65393000e-001
 -2.80151000e-001
 -1.04675000e-001
 3.99780000e-002
 1.62964000e-001
 4.51202000e-001
 6.89850000e-001
 8.78601000e-001
 1.09390300e+000
 1.26419100e+000
 1.47689800e+000
 1.68792700e+000
 1.85150100e+000
 1.99905400e+000
 2.15728800e+000
 2.24990800e+000
 2.18353300e+000
 2.04574600e+000
 1.64108300e+000
 1.10519400e+000
 6.28510000e-001
 1.69678000e-001
 -1.19781000e-001
 -4.95453000e-001
 -6.99615000e-001
 -8.36487000e-001
 -1.00494400e+000
 -1.01791400e+000
 -1.01928700e+000
 -9.77173000e-001
 -1.00006100e+000
 -9.40247000e-001
 -1.04248000e+000
 -1.08322100e+000
 -1.17248500e+000
 -1.25366200e+000
 -1.28372200e+000
 -1.32629400e+000
 -1.42257700e+000
 -1.49276700e+000
 -1.59576400e+000
 -1.63162200e+000
 -1.58676100e+000
 -1.58111600e+000
 -1.55654900e+000
 -1.57745400e+000
 -1.55853300e+000
 -1.54983500e+000
 -1.52145400e+000
 -1.50299100e+000
 -1.48284900e+000
 -1.42746000e+000
 -1.43417400e+000
 -1.39801000e+000
 -1.33331300e+000
 -1.32507300e+000
 -1.31530800e+000
 -1.29821800e+000
 -1.29806500e+000
 -1.29119900e+000
 -1.24725300e+000
 -1.27883900e+000
 -1.26571700e+000
 -1.31683300e+000
 -1.33346600e+000
 -1.32156400e+000
 -1.29547100e+000
 -1.31240800e+000
 -1.31332400e+000
 -1.31744400e+000
 -1.27395600e+000
 -1.25625600e+000
 -1.24176000e+000
 -1.27868700e+000
 -1.29730200e+000
 -1.26144400e+000
 -1.25717200e+000
 -1.28921500e+000
 -1.25778200e+000
 -1.28036500e+000
 -1.27563500e+000
 -1.26983600e+000
 -1.25900300e+000
 -1.26083400e+000
 -1.26800500e+000
 -1.28036500e+000
 -1.28936800e+000
 -1.26205400e+000
 -1.21826200e+000
 -1.22146600e+000
 -1.24923700e+000
 -1.22619600e+000
 -1.22146600e+000
 -1.20620700e+000
 -1.20697000e+000
 -1.25503500e+000
 -1.26815800e+000
 -1.21353100e+000
 -1.24176000e+000
 -1.27288800e+000
 -1.25869800e+000
 -1.22146600e+000
 -1.21704100e+000
 -1.24328600e+000
 -1.19689900e+000
 -1.19293200e+000
 -1.20208700e+000
 -1.18606600e+000
 -1.20025600e+000
 -1.21902500e+000
 -1.19827300e+000
 -1.17538500e+000
 -1.21292100e+000
 -1.21261600e+000
 -1.19323700e+000
 -1.22177100e+000
 -1.19125400e+000
 -1.15219100e+000
 -1.17569000e+000
 -1.14028900e+000
 -1.13418600e+000
 -1.14669800e+000
 -1.11862200e+000
 -1.13586400e+000
 -1.16714500e+000
 -1.14624000e+000
 -1.13082900e+000
 -1.10488900e+000
 -1.13067600e+000
 -1.14639300e+000
 -1.09130900e+000
 -1.09191900e+000
 -1.07955900e+000
 -1.08413700e+000
 -1.09268200e+000
 -1.10839800e+000
 -1.10366800e+000
 -1.09130900e+000
 -1.11099200e+000
 -1.04782100e+000
 -1.07437100e+000
 -1.07299800e+000
 -1.08993500e+000
 -1.04629500e+000
 -1.07513400e+000
 -1.09054600e+000
 -1.10305800e+000
 -1.09695400e+000
 -1.08963000e+000
 -1.11740100e+000
 -1.06964100e+000
 -1.08703600e+000
 -1.05361900e+000
 -1.05484000e+000
 -1.01562500e+000
 -1.06399500e+000
 -1.01928700e+000
 -1.04400600e+000
 -9.91974000e-001
 -1.02356000e+000
 -1.01455700e+000
 -1.04538000e+000
 -1.01593000e+000
 -1.02645900e+000
 -1.01470900e+000
 -1.02340700e+000
 -1.01806600e+000
 -9.57489000e-001
 -1.01806600e+000
 -9.74579000e-001
 -1.00067100e+000
 -9.77173000e-001
 -9.43146000e-001
 -1.00387600e+000
 -9.77478000e-001
 -1.00235000e+000
 -9.62982000e-001
 -9.52454000e-001
 -9.30328000e-001
 -9.12781000e-001
 -9.49249000e-001
 -9.61456000e-001
 -9.19037000e-001
 -9.63135000e-001
 -9.24377000e-001
 -8.83789000e-001
 -9.03625000e-001
 -9.19800000e-001
 -8.90503000e-001
 -8.76007000e-001
 -8.90656000e-001
 -8.49915000e-001
 -8.25958000e-001
 -8.94928000e-001
 -8.87451000e-001
 -8.01392000e-001
 -8.07343000e-001
 -8.62579000e-001
 -8.03070000e-001
 -7.55920000e-001
 -7.58820000e-001
 -7.92847000e-001
 -8.03680000e-001
 -7.99103000e-001
 -7.60040000e-001
 -6.93207000e-001
 -7.01141000e-001
 -7.36237000e-001
 -7.57599000e-001
 -7.20215000e-001
 -7.07550000e-001
 -6.61011000e-001
 -6.48651000e-001
 -6.27136000e-001
 -6.39496000e-001
 -6.33698000e-001
 -6.63910000e-001
 -6.61163000e-001
 -6.61316000e-001
 -6.26373000e-001
 -5.52368000e-001
 -5.39398000e-001
 -5.37720000e-001
 -5.08423000e-001
 -4.98352000e-001
 -4.90723000e-001
 -4.92859000e-001
 -4.98199000e-001
 -5.27802000e-001
 -5.41229000e-001
 -5.23376000e-001
 -4.44336000e-001
 -3.85284000e-001
 -3.94440000e-001
 -4.67529000e-001
 -4.27246000e-001
 -3.74908000e-001
 -3.87421000e-001
 -4.21906000e-001
 -3.64532000e-001
 -2.80914000e-001
 -3.57666000e-001
 -2.89307000e-001
 -2.90680000e-001
 -3.34778000e-001
 -1.85547000e-001
 -3.32794000e-001
 -2.78625000e-001
 -2.55280000e-001
 -2.76794000e-001
 -1.99432000e-001
 -2.90680000e-001
 -1.76392000e-001
 -2.73437000e-001
 -1.41296000e-001
 -2.11487000e-001
 -1.45416000e-001
 -1.75323000e-001
 -1.93787000e-001
 -1.58844000e-001
 -1.88141000e-001
 -7.93460000e-002
 -2.11792000e-001
 -9.68930000e-002
 -1.65558000e-001
 -1.82343000e-001
 -1.13525000e-001
 -2.05536000e-001
 -1.12305000e-001
 -1.79596000e-001
 -1.35498000e-001
 -1.00098000e-001
 -1.79901000e-001
 -1.08337000e-001
 -2.16064000e-001
 -1.49994000e-001
 -1.82800000e-001
 -2.03552000e-001
 -1.99890000e-001
 -2.70233000e-001
 -2.39868000e-001
 -3.25623000e-001
 -2.62146000e-001
 -3.40271000e-001
 -3.34167000e-001
 -3.40881000e-001
 -4.18701000e-001
 -3.44849000e-001
 -4.10461000e-001
 -4.65851000e-001
 -4.00696000e-001
 -4.38690000e-001
 -5.58014000e-001
 -5.99060000e-001
 -5.38940000e-001
 -5.62897000e-001
 -5.45959000e-001
 -6.10809000e-001
 -6.56586000e-001
 -6.93207000e-001
 -7.18079000e-001
 -7.25098000e-001
 -7.69958000e-001
 -7.92542000e-001
 -8.01544000e-001
 -7.98798000e-001
 -7.69958000e-001
 -7.84912000e-001
 -8.29315000e-001
 -8.27332000e-001
 -8.26111000e-001
 -8.46252000e-001
 -9.06830000e-001
 -9.47266000e-001
 -9.28040000e-001
 -9.17969000e-001
 -9.14154000e-001
 -9.43451000e-001
 -9.75037000e-001
 -9.63135000e-001
 -9.45587000e-001
 -9.86938000e-001
 -1.01028400e+000
 -9.83582000e-001
 -9.63287000e-001
 -1.01593000e+000
 -1.02172900e+000
 -9.89838000e-001
 -1.02691700e+000
 -1.06506300e+000
 -1.03302000e+000
 -1.07345600e+000
 -1.11450200e+000
 -1.05392500e+000
 -1.09146100e+000
 -1.09726000e+000
 -1.07620200e+000
 -1.09481800e+000
 -1.06506300e+000
 -1.06918300e+000
 -1.08764600e+000
 -1.05468700e+000
 -1.09695400e+000
 -1.10778800e+000
 -1.06018100e+000
 -1.13235500e+000
 -1.10855100e+000
 -1.09008800e+000
 -1.11846900e+000
 -1.08535800e+000
 -1.17034900e+000
 -1.13586400e+000
 -1.10229500e+000
 -1.11969000e+000
 -1.06720000e+000
 -1.09787000e+000
 -1.11022900e+000
 -1.07162500e+000
 -1.12854000e+000
 -1.07605000e+000
 -1.08169600e+000
 -1.11785900e+000
 -1.08078000e+000
 -1.14257800e+000
 -1.11602800e+000
 -1.10641500e+000
 -1.13296500e+000
 -1.10504200e+000
 -1.13616900e+000
 -1.14410400e+000
 -1.09390300e+000
 -1.12228400e+000
 -1.10000600e+000
 -1.08169600e+000
 -1.12243700e+000
 -1.11358600e+000
 -1.14975000e+000
 -1.10244800e+000
 -1.07132000e+000
 -1.14547700e+000
 -1.10687300e+000
 -1.14593500e+000
 -1.14456200e+000
 -1.13372800e+000
 -1.13403300e+000
 -1.10122700e+000
 -1.13922100e+000
 -1.09451300e+000
 -1.08352700e+000
 -1.11816400e+000
 -1.08932500e+000
 -1.11999500e+000
 -1.10183700e+000
 -1.04599000e+000
 -1.12518300e+000
 -1.12350500e+000
 -1.09497100e+000
 -1.12915000e+000
 -1.13067600e+000
 -1.11358600e+000
 -1.12716700e+000
 -1.10031100e+000
 -1.09985400e+000
 -1.14791900e+000
 -1.11541700e+000
 -1.12945600e+000
 -1.08978300e+000
 -1.08093300e+000
 -1.14044200e+000
 -1.11496000e+000
 -1.13189700e+000
 -1.17004400e+000
 -1.12533600e+000
 -1.14944500e+000
 -1.13418600e+000
 -1.15325900e+000
 -1.13861100e+000
 -1.09649700e+000
 -1.11663800e+000
 -1.10626200e+000
 -1.07467700e+000
 -1.09848000e+000
 -1.08459500e+000
 -1.10672000e+000
 -1.14334100e+000
 -1.08306900e+000
 -1.11923200e+000
 -1.13632200e+000
 -1.08688400e+000
 -1.13967900e+000
 -1.12472500e+000
 -1.14578200e+000
 -1.14257800e+000
 -1.12075800e+000
 -1.14196800e+000
 -1.05011000e+000
 -1.07727100e+000
 -1.09985400e+000
 -1.04812600e+000
 -1.09024000e+000
 -1.11740100e+000
 -1.07208300e+000
 -1.08627300e+000
 -1.06811500e+000
 -1.00555400e+000
 -1.05239900e+000
 -1.09634400e+000
 -1.08398400e+000
 -1.13555900e+000
 -1.10900900e+000
 -1.09115600e+000
 -1.13830600e+000
 -1.08963000e+000
 -1.05148300e+000
 -1.11007700e+000
 -1.08749400e+000
 -1.06140100e+000
 -1.11557000e+000
 -1.07742300e+000
 -1.05148300e+000
 -1.13418600e+000
 -1.10885600e+000
 -1.07467700e+000
 -1.14242600e+000
 -1.11404400e+000
 -1.11312900e+000
 -1.14486700e+000
 -1.10809300e+000
 -1.12167400e+000
 -1.10565200e+000
 -1.06689500e+000
 -1.13418600e+000
 -1.12655600e+000
 -1.11099200e+000
 -1.11908000e+000
 -1.08429000e+000
 -1.07482900e+000
 -1.11434900e+000
 -1.10046400e+000
 -1.07940700e+000
 -1.13433800e+000
 -1.10900900e+000
 -1.11511200e+000
 -1.11770600e+000
 -1.08230600e+000
 -1.11114500e+000
 -1.06094400e+000
 -1.03027300e+000
 -1.07101400e+000
 -1.05499300e+000
 -1.04156500e+000
 -1.06536900e+000
 -1.05728100e+000
 -1.09283400e+000
 -1.06979400e+000
 -1.09954800e+000
 -1.08764600e+000
 -1.03576700e+000
 -1.09893800e+000
 -1.08337400e+000
 -1.11022900e+000
 -1.11114500e+000
 -1.08947800e+000
 -1.11953700e+000
 -1.05148300e+000
 -1.10443100e+000
 -1.10534700e+000
 -1.10076900e+000
 -1.13342300e+000
 -1.13922100e+000
 -1.12136800e+000
 -1.10168500e+000
 -1.11450200e+000
 -1.09863300e+000
 -1.08062700e+000
 -1.11831700e+000
 -1.10794100e+000
 -1.08276400e+000
 -1.08886700e+000
 -1.10122700e+000
 -1.08642600e+000
 -1.06674200e+000
 -1.11526500e+000
 -1.08520500e+000
 -1.04858400e+000
 -1.07254000e+000
 -1.11694300e+000
 -1.08978300e+000
 -1.04446400e+000
 -1.09909100e+000
 -1.09436000e+000
 -1.10611000e+000
 -1.10244800e+000
 -1.10153200e+000
 -1.06323200e+000
 -1.10122700e+000
 -1.06277500e+000
 -1.03988600e+000
 -1.08718900e+000
 -1.10015900e+000
 -1.07482900e+000
 -1.10122700e+000
 -1.08215300e+000
 -1.06872600e+000
 -1.09970100e+000
 -1.07086200e+000
 -1.08444200e+000
 -1.10641500e+000
 -1.10977200e+000
 -1.10260000e+000
 -1.05865500e+000
 -1.12411500e+000
 -1.05911300e+000
 -1.07284500e+000
 -1.04797400e+000
 -1.07742300e+000
 -1.08566300e+000
 -1.07620200e+000
 -1.04644800e+000
 -1.09039300e+000
 -1.05545000e+000
 -1.12014800e+000
 -1.10153200e+000
 -1.11480700e+000
 -1.14090000e+000
 -1.11816400e+000
 -1.11679100e+000
 -1.05835000e+000
 -1.09558100e+000
 -1.13967900e+000
 -1.08139000e+000
 -1.06628400e+000
 -1.10275300e+000
 -1.08810400e+000
 -1.05819700e+000
 -1.09558100e+000
 -1.10778800e+000
 -1.09481800e+000
 -1.05651900e+000
 -1.08978300e+000
 -1.11724900e+000
 -1.09787000e+000
 -1.07849100e+000
 -1.04995700e+000
 -1.02783200e+000
 -1.08657800e+000
 -1.13647500e+000
 -1.10656700e+000
 -1.08062700e+000
 -1.07086200e+000
 -1.08032200e+000
 -1.11602800e+000
 -1.11022900e+000
 -1.05987500e+000
 -1.03347800e+000
 -1.05789200e+000
 -1.09603900e+000
 -1.13128700e+000
 -1.12152100e+000
 -1.09848000e+000
 -1.05407700e+000
 -1.12487800e+000
 -1.14181500e+000
 -1.09756500e+000
 -1.08352700e+000
 -1.08932500e+000
 -1.08139000e+000
 -1.09634400e+000
 -1.10504200e+000
 -1.08718900e+000
 -1.08306900e+000
 -1.06765700e+000
 -1.11846900e+000
 -1.13433800e+000
 -1.11190800e+000
 -1.12457300e+000
 -1.12838700e+000
 -1.17813100e+000
 -1.14730800e+000
 -1.08413700e+000
 -1.06063800e+000
 -1.06735200e+000
 -1.08032200e+000
 -1.09832800e+000
 -1.10916100e+000
 -1.08917200e+000
 -1.04980500e+000
 -1.01425200e+000
 -1.01470900e+000
 -1.05636600e+000
 -1.08749400e+000
 -1.06781000e+000
 -1.05819700e+000
 -1.09710700e+000
 -1.06948900e+000
 -1.08322100e+000
 -1.05270400e+000
 -1.09298700e+000
 -1.07376100e+000
 -1.07177700e+000
 -1.07925400e+000
 -1.07803300e+000
 -1.07528700e+000
 -1.03515600e+000
 -1.01654100e+000
 -1.03988600e+000
 -1.04553200e+000
 -1.04202300e+000
 -1.06750500e+000
 -1.06338500e+000
 -1.05209400e+000
 -1.02584800e+000
 -1.07727100e+000
 -1.09359700e+000
 -1.06628400e+000
 -1.05590800e+000
 -1.05743400e+000
 -1.06063800e+000
 -1.06643700e+000
 -1.03897100e+000
 -1.09252900e+000
 -1.07330300e+000
 -1.07849100e+000
 -1.08520500e+000
 -1.06811500e+000
 -1.07864400e+000
 -1.04782100e+000
 -1.07345600e+000
 -1.03378300e+000
 -1.09787000e+000
 -1.05682400e+000
 -1.02767900e+000
 -1.00479100e+000
 -1.00311300e+000
 -1.04492200e+000
 -1.05423000e+000
 -1.04080200e+000
 -1.07345600e+000
 -1.04461700e+000
 -1.07345600e+000
 -1.07864400e+000
 -1.08779900e+000
 -1.05911300e+000
 -1.09680200e+000
 -1.07193000e+000
 -1.03378300e+000
 -9.84344000e-001
 -1.01821900e+000
 -1.00158700e+000
 -1.00051900e+000
 -1.06033300e+000
 -1.11557000e+000
 -1.11831700e+000
 -1.09771700e+000
 -1.06658900e+000
 -1.10977200e+000
 -1.10763500e+000
 -1.08627300e+000
 -1.10366800e+000
 -1.08459500e+000
 -1.11679100e+000
 -1.07833900e+000
 -1.03714000e+000
 -1.01409900e+000
 -1.02615400e+000
 -1.07833900e+000
 -1.09085100e+000
 -1.08840900e+000
 -1.03439300e+000
 -1.05361900e+000
 -1.07772800e+000
 -1.09359700e+000
 -1.08078000e+000
 -1.04476900e+000
 -1.05499300e+000
 -1.07788100e+000
 -1.08230600e+000
 -1.03653000e+000
 -1.07574500e+000
 -1.06979400e+000
 -1.05896000e+000
 -1.03805500e+000
 -1.06155400e+000
 -1.13586400e+000
 -1.09649700e+000
 -1.05484000e+000
 -1.07772800e+000
 -1.11099200e+000
 -1.05697600e+000
 -1.01730300e+000
 -1.05163600e+000
 -1.13464400e+000
 -1.12426800e+000
 -1.06094400e+000
 -1.05270400e+000
 -1.07025100e+000
 -1.09176600e+000
 -1.07391400e+000
 -1.01760900e+000
 -1.02600100e+000
 -1.06292700e+000
 -1.06292700e+000
 -1.00448600e+000
 -9.86938000e-001
 -1.04568500e+000
 -1.07940700e+000
 -1.06979400e+000
 -1.05270400e+000
 -1.07727100e+000
 -1.09527600e+000
 -1.06521600e+000
 -1.02676400e+000
 -1.05636600e+000
 -1.08596800e+000
 -1.05529800e+000
 -1.01623500e+000
 -9.73663000e-001
 -9.97009000e-001
 -1.07482900e+000
 -1.08520500e+000
 -1.03820800e+000
 -1.06308000e+000
 -1.07635500e+000
 -1.09878500e+000
 -1.05026200e+000
 -1.05545000e+000
 -1.05239900e+000
 -1.03668200e+000
 -1.04095500e+000
 -1.07116700e+000
 -1.06552100e+000
 -9.98688000e-001
 -1.02188100e+000
 -1.05743400e+000
 -1.01059000e+000
 -9.88922000e-001
 -1.03836100e+000
 -1.02264400e+000
 -9.88159000e-001
 -9.98993000e-001
 -1.05514500e+000
 -1.06674200e+000
 -9.97620000e-001
 -9.93958000e-001
 -1.04263300e+000
 -1.01120000e+000
 -9.82056000e-001
 -1.03851300e+000
 -1.03363000e+000
 -9.81750000e-001
 -1.04705800e+000
 -1.04370100e+000
 -1.02615400e+000
 -1.04431200e+000
 -1.03866600e+000
 -9.90448000e-001
 -1.02615400e+000
 -1.04873700e+000
 -1.04095500e+000
 -1.01730300e+000
 -1.01699800e+000
 -1.00341800e+000
 -9.95178000e-001
 -1.01944000e+000
 -1.00921600e+000
 -9.87549000e-001
 -1.00738500e+000
 -1.01074200e+000
 -9.84344000e-001
 -1.03027300e+000
 -1.00753800e+000
 -9.73969000e-001
 -1.03149400e+000
 -9.95789000e-001
 -1.02676400e+000
 -1.01364100e+000
 -9.81445000e-001
 -1.01257300e+000
 -9.78088000e-001
 -9.35669000e-001
 -9.29260000e-001
 -8.95386000e-001
 -8.35876000e-001
 -8.70361000e-001
 -9.16901000e-001
 -8.77533000e-001
 -8.42438000e-001
 -8.58459000e-001
 -8.71735000e-001
 -8.83942000e-001
 -7.74841000e-001
 -7.76520000e-001
 -8.09021000e-001
 -7.88269000e-001
 -7.92999000e-001
 -7.78961000e-001
 -7.33032000e-001
 -6.90765000e-001
 -7.09686000e-001
 -7.06787000e-001
 -7.17926000e-001
 -7.37000000e-001
 -7.32422000e-001
 -6.80389000e-001
 -6.35834000e-001
 -5.97076000e-001
 -5.79681000e-001
 -5.69305000e-001
 -6.06995000e-001
 -6.11877000e-001
 -5.98297000e-001
 -5.77240000e-001
 -5.66711000e-001
 -5.26276000e-001
 -4.87366000e-001
 -4.86145000e-001
 -4.90875000e-001
 -4.81567000e-001
 -5.02319000e-001
 -5.27191000e-001
 -5.55878000e-001
 -5.63965000e-001
 -5.61066000e-001
 -5.65186000e-001
 -6.07147000e-001
 -6.18286000e-001
 -5.84717000e-001
 -6.31409000e-001
 -6.57654000e-001
 -6.39496000e-001
 -6.52161000e-001
 -6.11572000e-001
 -5.89294000e-001
 -6.03485000e-001
 -5.85937000e-001
 -6.41327000e-001
 -6.12488000e-001
 -6.50330000e-001
 -6.59027000e-001
 -6.86646000e-001
 -6.94275000e-001
 -6.56586000e-001
 -6.79932000e-001
 -6.45142000e-001
 -6.93359000e-001
 -7.01752000e-001
 -6.94427000e-001
 -6.74591000e-001
 -6.66351000e-001
 -7.09534000e-001
 -7.23267000e-001
 -7.45544000e-001
 -7.61108000e-001
 -7.46002000e-001
 -7.56378000e-001
 -8.06885000e-001
 -8.31451000e-001
 -8.58459000e-001
 -8.43964000e-001
 -8.72650000e-001
 -8.90961000e-001
 -8.99048000e-001
 -9.49249000e-001
 -9.55353000e-001
 -9.37347000e-001
 -9.35059000e-001
 -9.25293000e-001
 -9.39789000e-001
 -9.86938000e-001
 -9.98993000e-001
 -9.91211000e-001
 -1.00921600e+000
 -1.03057900e+000
 -1.03714000e+000
 -1.04873700e+000
 -1.04019200e+000
 -1.00799600e+000
 -9.94415000e-001
 -1.04019200e+000
 -1.02584800e+000
 -1.02356000e+000
 -1.02874800e+000
 -1.01257300e+000
 -1.03408800e+000
 -1.01348900e+000
 -1.02371200e+000
 -9.98688000e-001
 -1.03805500e+000
 -1.05072000e+000
 -1.03790300e+000
 -1.05072000e+000
 -1.04370100e+000
 -1.04812600e+000
 -1.01226800e+000
 -9.94568000e-001
 -1.01806600e+000
 -1.00189200e+000
 -9.75800000e-001
 -9.82056000e-001
 -1.02340700e+000
 -9.93500000e-001
 -9.79156000e-001
 -1.01455700e+000
 -1.04034400e+000
 -1.00174000e+000
 -9.84650000e-001
 -1.02111800e+000
 -1.02066000e+000
 -1.02447500e+000
 -1.03241000e+000
 -9.98840000e-001
 -1.00936900e+000
 -1.01532000e+000
 -9.74579000e-001
 -9.77325000e-001
 -9.55200000e-001
 -1.00265500e+000
 -1.00387600e+000
 -9.54437000e-001
 -9.26819000e-001
 -9.49097000e-001
 -9.53522000e-001
 -9.10187000e-001
 -8.79364000e-001
 -8.16345000e-001
 -7.76520000e-001
 -7.19147000e-001
 -6.96259000e-001
 -6.45905000e-001
 -6.52008000e-001
 -6.21185000e-001
 -4.51355000e-001
 -5.18951000e-001
 -5.31158000e-001
 -4.08173000e-001
 -4.43115000e-001
 -2.45819000e-001
 -2.75421000e-001
 -1.52435000e-001
 -1.63270000e-002
 1.21002000e-001
 2.77100000e-001
 3.73993000e-001
 6.17065000e-001
 8.16803000e-001
 1.00143400e+000
 1.23382600e+000
 1.48254400e+000
 1.62048300e+000
 1.79412800e+000
 1.99935900e+000
 2.20123300e+000
 2.36602800e+000
 2.53341700e+000
 2.61703500e+000
 2.59262100e+000
 2.45269800e+000
 2.20504800e+000
 1.71890300e+000
 1.24649000e+000
 7.77588000e-001
 3.79028000e-001
 1.18713000e-001
 -1.26648000e-001
 -3.81165000e-001
 -4.52423000e-001
 -6.71692000e-001
 -5.85632000e-001
 -5.10559000e-001
 -5.70984000e-001
 -4.87976000e-001
 -5.75867000e-001
 -5.99670000e-001
 -6.17218000e-001
 -7.68280000e-001
 -8.78448000e-001
 -9.50928000e-001
 -1.01913500e+000
 -1.12258900e+000
 -1.19125400e+000
 -1.17904700e+000
 -1.18377700e+000
 -1.26586900e+000
 -1.20956400e+000
 -1.17080700e+000
 -1.19216900e+000
 -1.18347200e+000
 -1.15173300e+000
 -1.15402200e+000
 -1.14517200e+000
 -1.11145000e+000
 -1.08795200e+000
 -1.05926500e+000
 -1.00906400e+000
 -9.72443000e-001
 -9.08203000e-001
 -8.71277000e-001
 -8.47931000e-001
 -8.33588000e-001
 -8.51288000e-001
 -8.74023000e-001
 -8.61511000e-001
 -8.76007000e-001
 -7.94067000e-001
 -8.00629000e-001
 -8.49152000e-001
 -9.03778000e-001
 -9.18427000e-001
 -8.98743000e-001
 -8.19855000e-001
 -8.16498000e-001
 -8.94318000e-001
 -9.26666000e-001
 -8.85162000e-001
 -7.85828000e-001
 -8.56628000e-001
 -9.19189000e-001
 -8.37250000e-001
 -7.89795000e-001
 -8.88367000e-001
 -8.59070000e-001
 -7.66602000e-001
 -8.10394000e-001
 -8.43658000e-001
 -8.80280000e-001
 -8.82874000e-001
 -7.87048000e-001
 -7.58667000e-001
 -8.37097000e-001
 -8.76770000e-001
 -7.91779000e-001
 -7.53174000e-001
 -7.87506000e-001
 -8.41370000e-001
 -8.18024000e-001
 -7.58820000e-001
 -8.08105000e-001
 -8.17261000e-001
 -7.38831000e-001
 -8.24280000e-001
 -7.81555000e-001
 -7.79114000e-001
 -8.10852000e-001
 -7.08923000e-001
 -8.25195000e-001
 -7.47528000e-001
 -7.59277000e-001
 -8.09631000e-001
 -8.03680000e-001
 -7.27234000e-001
 -7.27692000e-001
 -7.78046000e-001
 -7.79572000e-001
 -6.84509000e-001
 -7.35168000e-001
 -7.90100000e-001
 -8.15582000e-001
 -7.16553000e-001
 -6.97327000e-001
 -7.51495000e-001
 -7.00684000e-001
 -7.29828000e-001
 -7.73621000e-001
 -6.62384000e-001
 -7.19147000e-001
 -7.61414000e-001
 -6.36597000e-001
 -7.31659000e-001
 -6.80542000e-001
 -6.51398000e-001
 -7.61414000e-001
 -6.28510000e-001
 -7.20367000e-001
 -7.15790000e-001
 -6.27594000e-001
 -7.14111000e-001
 -7.41730000e-001
 -6.56281000e-001
 -7.16858000e-001
 -7.19147000e-001
 -5.99060000e-001
 -6.81915000e-001
 -6.31256000e-001
 -7.25250000e-001
 -6.18134000e-001
 -6.91681000e-001
 -6.05011000e-001
 -7.32727000e-001
 -6.32629000e-001
 -7.19452000e-001
 -6.41937000e-001
 -7.07855000e-001
 -6.08215000e-001
 -6.72455000e-001
 -5.56793000e-001
 -6.73676000e-001
 -5.57251000e-001
 -6.32172000e-001
 -5.10254000e-001
 -5.84564000e-001
 -5.47791000e-001
 -5.92804000e-001
 -5.84106000e-001
 -5.97076000e-001
 -5.83191000e-001
 -5.82581000e-001
 -5.77698000e-001
 -5.85632000e-001
 -5.09796000e-001
 -5.96161000e-001
 -4.90875000e-001
 -6.05621000e-001
 -4.93317000e-001
 -5.05829000e-001
 -5.27954000e-001
 -4.49066000e-001
 -5.68848000e-001
 -4.98962000e-001
 -4.40521000e-001
 -5.41534000e-001
 -4.73328000e-001
 -4.59900000e-001
 -5.26886000e-001
 -5.09186000e-001
 -4.31671000e-001
 -4.89349000e-001
 -5.18494000e-001
 -4.16260000e-001
 -4.90875000e-001
 -4.64325000e-001
 -3.75214000e-001
 -4.57611000e-001
 -4.73022000e-001
 -3.83759000e-001
 -3.59497000e-001
 -4.30298000e-001
 -4.10614000e-001
 -3.19366000e-001
 -3.92761000e-001
 -4.44489000e-001
 -4.45862000e-001
 -3.42407000e-001
 -3.20282000e-001
 -3.21350000e-001
 -3.28827000e-001
 -3.76740000e-001
 -3.85742000e-001
 -3.13873000e-001
 -2.28119000e-001
 -2.49329000e-001
 -2.92511000e-001
 -2.94037000e-001
 -2.92358000e-001
 -2.73743000e-001
 -2.61230000e-001
 -2.24152000e-001
 -2.15607000e-001
 -2.03247000e-001
 -1.54266000e-001
 -1.48163000e-001
 -1.47705000e-001
 -1.49689000e-001
 -1.55487000e-001
 -1.39313000e-001
 -1.43890000e-001
 -1.51215000e-001
 -1.42975000e-001
 -9.79610000e-002
 -3.73840000e-002
 -9.00300000e-003
 -2.18200000e-002
 -2.83810000e-002
 -3.17380000e-002
 2.36510000e-002
 7.62900000e-003
 7.93500000e-003
 3.21960000e-002
 4.57760000e-002
 3.17380000e-002
 8.91110000e-002
 9.96400000e-002
 6.08830000e-002
 1.29242000e-001
 1.15814000e-001
 1.13983000e-001
 1.60980000e-001
 1.22528000e-001
 1.57013000e-001
 1.97601000e-001
 1.46179000e-001
 1.75934000e-001
 2.73132000e-001
 2.15607000e-001
 2.72064000e-001
 2.02942000e-001
 2.56195000e-001
 2.18964000e-001
 2.81067000e-001
 2.52838000e-001
 3.44086000e-001
 2.73743000e-001
 3.20282000e-001
 2.85645000e-001
 2.92969000e-001
 2.92664000e-001
 2.81525000e-001
 3.00751000e-001
 2.96631000e-001
 2.84424000e-001
 2.27814000e-001
 2.93732000e-001
 2.66113000e-001
 2.91595000e-001
 2.70691000e-001
 2.99835000e-001
 2.90833000e-001
 2.43530000e-001
 2.47803000e-001
 2.16370000e-001
 2.12708000e-001
 1.27106000e-001
 1.65710000e-001
 1.23291000e-001
 8.54490000e-002
 1.11847000e-001
 6.30190000e-002
 1.05133000e-001
 1.05133000e-001
 -3.81500000e-003
 5.73730000e-002
 2.33460000e-002
 -2.02940000e-002
 -5.75260000e-002
 -5.02010000e-002
 -1.10626000e-001
 -1.53656000e-001
 -1.28326000e-001
 -1.41144000e-001
 -1.42975000e-001
 -1.73187000e-001
 -2.30103000e-001
 -2.56042000e-001
 -3.18604000e-001
 -3.17993000e-001
 -3.36761000e-001
 -3.11432000e-001
 -3.16162000e-001
 -3.28064000e-001
 -3.39050000e-001
 -3.75061000e-001
 -4.33807000e-001
 -4.89807000e-001
 -4.53796000e-001
 -4.14429000e-001
 -4.29535000e-001
 -5.40009000e-001
 -5.03998000e-001
 -4.77448000e-001
 -5.80444000e-001
 -4.99420000e-001
 -5.14679000e-001
 -5.95703000e-001
 -5.09644000e-001
 -5.65338000e-001
 -5.85480000e-001
 -5.15442000e-001
 -6.09894000e-001
 -5.79834000e-001
 -5.28259000e-001
 -6.25153000e-001
 -5.50842000e-001
 -5.92041000e-001
 -6.77338000e-001
 -5.69000000e-001
 -7.00684000e-001
 -5.80444000e-001
 -6.91223000e-001
 -6.62537000e-001
 -6.56128000e-001
 -6.63452000e-001
 -5.78461000e-001
 -6.82068000e-001
 -6.15082000e-001
 -6.48193000e-001
 -6.90918000e-001
 -6.03180000e-001
 -7.18689000e-001
 -6.19049000e-001
 -7.14111000e-001
 -6.93359000e-001
 -6.56128000e-001
 -7.43866000e-001
 -6.26831000e-001
 -7.58820000e-001
 -6.49567000e-001
 -7.52563000e-001
 -6.08215000e-001
 -7.43256000e-001
 -6.44073000e-001
 -7.43103000e-001
 -6.60553000e-001
 -7.22351000e-001
 -6.50024000e-001
 -6.87256000e-001
 -7.07397000e-001
 -7.06787000e-001
 -7.18079000e-001
 -6.95648000e-001
 -6.90002000e-001
 -6.79779000e-001
 -7.23114000e-001
 -6.94427000e-001
 -7.10754000e-001
 -6.40869000e-001
 -7.20825000e-001
 -6.75507000e-001
 -7.61719000e-001
 -6.51245000e-001
 -7.42493000e-001
 -6.66199000e-001
 -7.84149000e-001
 -6.53992000e-001
 -7.10754000e-001
 -6.92291000e-001
 -6.89087000e-001
 -7.59735000e-001
 -6.42853000e-001
 -7.70569000e-001
 -6.52771000e-001
 -7.23267000e-001
 -7.22198000e-001
 -6.71234000e-001
 -7.29980000e-001
 -6.37360000e-001
 -7.53326000e-001
 -6.35529000e-001
 -6.67267000e-001
 -7.18536000e-001
 -6.06232000e-001
 -7.41272000e-001
 -6.73981000e-001
 -7.39136000e-001
 -7.00226000e-001
 -6.67877000e-001
 -7.44781000e-001
 -6.63147000e-001
 -7.57141000e-001
 -6.41327000e-001
 -7.40814000e-001
 -6.32019000e-001
 -7.35474000e-001
 -6.43158000e-001
 -6.37360000e-001
 -7.25250000e-001
 -6.30798000e-001
 -7.46765000e-001
 -6.73981000e-001
 -7.15485000e-001
 -7.16248000e-001
 -6.52466000e-001
 -7.55310000e-001
 -6.12946000e-001
 -7.27844000e-001
 -6.72607000e-001
 -6.05011000e-001
 -7.20825000e-001
 -6.15082000e-001
 -6.73370000e-001
 -7.13654000e-001
 -6.25458000e-001
 -7.54089000e-001
 -5.96924000e-001
 -7.38983000e-001
 -6.36749000e-001
 -6.90918000e-001
 -6.69250000e-001
 -6.32477000e-001
 -7.17316000e-001
 -6.10199000e-001
 -7.01294000e-001
 -6.41937000e-001
 -6.66962000e-001
 -6.77185000e-001
 -5.97229000e-001
 -6.74896000e-001
 -5.63965000e-001
 -6.35986000e-001
 -6.71387000e-001
 -6.01654000e-001
 -7.07397000e-001
 -6.33392000e-001
 -6.89697000e-001
 -6.54907000e-001
 -5.94482000e-001
 -7.12433000e-001
 -5.77850000e-001
 -6.46667000e-001
 -6.59943000e-001
 -6.10046000e-001
 -6.78864000e-001
 -5.61829000e-001
 -6.81458000e-001
 -5.76172000e-001
 -5.82733000e-001
 -7.05261000e-001
 -5.89447000e-001
 -6.80542000e-001
 -6.60858000e-001
 -6.48956000e-001
 -6.90918000e-001
 -5.53436000e-001
 -6.77032000e-001
 -5.74188000e-001
 -6.63910000e-001
 -5.82886000e-001
 -6.01044000e-001
 -6.46210000e-001
 -6.03638000e-001
 -6.52771000e-001
 -5.86395000e-001
 -6.76117000e-001
 -5.80902000e-001
 -6.53076000e-001
 -5.79224000e-001
 -6.82220000e-001
 -6.11115000e-001
 -6.36597000e-001
 -6.66962000e-001
 -5.67474000e-001
 -6.50787000e-001
 -6.14929000e-001
 -5.63049000e-001
 -6.69708000e-001
 -6.38885000e-001
 -5.95551000e-001
 -6.62079000e-001
 -6.69098000e-001
 -5.87158000e-001
 -6.05774000e-001
 -6.57196000e-001
 -6.31104000e-001
 -5.73578000e-001
 -5.81512000e-001
 -6.41327000e-001
 -6.57196000e-001
 -6.65741000e-001
 -6.35986000e-001
 -6.15692000e-001
 -5.90057000e-001
 -5.69458000e-001
 -6.13556000e-001
 -6.49872000e-001
 -6.75354000e-001
 -6.83136000e-001
 -6.75659000e-001
 -6.69708000e-001
 -6.26221000e-001
 -5.89294000e-001
 -5.73425000e-001
 -6.01501000e-001
 -6.43768000e-001
 -6.66656000e-001
 -6.61469000e-001
 -6.29730000e-001
 -6.18744000e-001
 -5.86853000e-001
 -6.25763000e-001
 -6.46973000e-001
 -6.70929000e-001
 -6.63147000e-001
 -6.81305000e-001
 -6.76880000e-001
 -6.60553000e-001
 -6.31104000e-001
 -6.17676000e-001
 -6.51398000e-001
 -6.58417000e-001
 -7.12891000e-001
 -7.10297000e-001
 -6.68793000e-001
 -5.98297000e-001
 -6.23779000e-001
 -6.57654000e-001
 -7.03583000e-001
 -6.60706000e-001
 -5.85022000e-001
 -5.85327000e-001
 -6.46362000e-001
 -6.97174000e-001
 -6.25000000e-001
 -6.06537000e-001
 -6.80237000e-001
 -6.64520000e-001
 -5.83344000e-001
 -6.74133000e-001
 -6.84052000e-001
 -5.99060000e-001
 -6.47736000e-001
 -6.97632000e-001
 -5.83344000e-001
 -6.62079000e-001
 -6.04858000e-001
 -6.01349000e-001
 -6.38123000e-001
 -6.02570000e-001
 -6.46667000e-001
 -5.81512000e-001
 -6.56433000e-001
 -5.99976000e-001
 -6.11115000e-001
 -6.59637000e-001
 -5.47333000e-001
 -6.57196000e-001
 -5.61218000e-001
 -6.36597000e-001
 -5.88226000e-001
 -6.02570000e-001
 -6.57196000e-001
 -5.91278000e-001
 -6.48041000e-001
 -5.82733000e-001
 -6.77948000e-001
 -5.86548000e-001
 -6.98090000e-001
 -5.94635000e-001
 -6.79321000e-001
 -5.73730000e-001
 -7.03888000e-001
 -5.93872000e-001
 -6.94122000e-001
 -5.52979000e-001
 -6.71539000e-001
 -5.82428000e-001
 -6.92596000e-001
 -5.57709000e-001
 -6.75964000e-001
 -5.80597000e-001
 -6.47430000e-001
 -6.14624000e-001
 -6.61774000e-001
 -6.39038000e-001
 -6.03180000e-001
 -6.27747000e-001
 -6.07452000e-001
 -6.48193000e-001
 -5.72815000e-001
 -6.75507000e-001
 -5.78766000e-001
 -6.59790000e-001
 -5.10864000e-001
 -6.54297000e-001
 -5.71136000e-001
 -6.70471000e-001
 -6.18896000e-001
 -6.17218000e-001
 -6.48956000e-001
 -5.79071000e-001
 -6.99158000e-001
 -6.26373000e-001
 -5.76172000e-001
 -6.90613000e-001
 -6.49872000e-001
 -5.69458000e-001
 -6.37512000e-001
 -6.61774000e-001
 -6.67419000e-001
 -6.56891000e-001
 -6.47736000e-001
 -6.42853000e-001
 -6.43921000e-001
 -6.63147000e-001
 -6.48041000e-001
 -6.34155000e-001
 -6.11572000e-001
 -6.66504000e-001
 -6.43463000e-001
 -6.26831000e-001
 -6.46820000e-001
 -6.27899000e-001
 -6.30341000e-001
 -6.19507000e-001
 -6.46362000e-001
 -6.23169000e-001
 -6.40564000e-001
 -6.35071000e-001
 -6.05011000e-001
 -6.48346000e-001
 -6.35834000e-001
 -6.37970000e-001
 -6.47736000e-001
 -6.71844000e-001
 -6.66351000e-001
 -6.39954000e-001
 -6.59332000e-001
 -6.72150000e-001
 -6.21643000e-001
 -6.62537000e-001
 -6.61011000e-001
 -6.57501000e-001
 -6.39038000e-001
 -6.50787000e-001
 -6.46210000e-001
 -6.28357000e-001
 -6.35071000e-001
 -6.15082000e-001
 -6.05316000e-001
 -6.32629000e-001
 -6.31409000e-001
 -6.77643000e-001
 -6.39801000e-001
 -6.26068000e-001
 -6.01807000e-001
 -5.78156000e-001
 -6.12488000e-001
 -5.97076000e-001
 -6.21033000e-001
 -6.70624000e-001
 -6.06842000e-001
 -6.36902000e-001
 -6.31866000e-001
 -6.50787000e-001
 -5.89600000e-001
 -6.94427000e-001
 -5.85937000e-001
 -6.90155000e-001
 -5.84717000e-001
 -6.99005000e-001
 -5.89142000e-001
 -6.32782000e-001
 -6.18439000e-001
 -5.54810000e-001
 -6.68488000e-001
 -6.47583000e-001
 -5.84412000e-001
 -6.04095000e-001
 -6.61926000e-001
 -7.12891000e-001
 -6.83289000e-001
 -6.11420000e-001
 -6.03790000e-001
 -6.42700000e-001
 -6.71082000e-001
 -7.02057000e-001
 -6.93665000e-001
 -6.57349000e-001
 -6.03180000e-001
 -5.67627000e-001
 -6.41632000e-001
 -6.50940000e-001
 -6.49109000e-001
 -5.84412000e-001
 -5.66101000e-001
 -6.23322000e-001
 -6.47583000e-001
 -6.94427000e-001
 -6.57654000e-001
 -5.98450000e-001
 -6.01501000e-001
 -6.29272000e-001
 -6.75049000e-001
 -6.91986000e-001
 -6.65131000e-001
 -6.15540000e-001
 -6.08826000e-001
 -6.03180000e-001
 -6.23627000e-001
 -6.65436000e-001
 -6.40106000e-001
 -5.65033000e-001
 -5.78156000e-001
 -6.12946000e-001
 -6.25916000e-001
 -6.76117000e-001
 -6.62994000e-001
 -6.61011000e-001
 -6.08215000e-001
 -5.69000000e-001
 -5.50385000e-001
 -5.70831000e-001
 -6.34460000e-001
 -6.65283000e-001
 -6.45599000e-001
 -6.28815000e-001
 -6.42548000e-001
 -6.56586000e-001
 -6.29578000e-001
 -5.91278000e-001
 -5.84412000e-001
 -5.85632000e-001
 -5.98907000e-001
 -6.10657000e-001
 -5.97382000e-001
 -6.04858000e-001
 -5.94940000e-001
 -6.79779000e-001
 -7.02362000e-001
 -6.83746000e-001
 -6.62689000e-001
 -6.51550000e-001
 -6.55365000e-001
 -6.39954000e-001
 -6.36444000e-001
 -6.40259000e-001
 -6.50482000e-001
 -6.35834000e-001
 -6.31561000e-001
 -6.45905000e-001
 -6.60248000e-001
 -6.47430000e-001
 -6.21948000e-001
 -6.51550000e-001
 -6.28510000e-001
 -6.15692000e-001
 -6.01959000e-001
 -6.10962000e-001
 -6.22101000e-001
 -5.99060000e-001
 -5.85327000e-001
 -6.08673000e-001
 -6.13098000e-001
 -6.19812000e-001
 -6.69861000e-001
 -6.66351000e-001
 -6.45905000e-001
 -6.64825000e-001
 -6.52924000e-001
 -6.47125000e-001
 -6.17676000e-001
 -6.23169000e-001
 -6.21643000e-001
 -6.02570000e-001
 -5.79071000e-001
 -5.54810000e-001
 -5.41992000e-001
 -4.94537000e-001
 -5.07812000e-001
 -5.35126000e-001
 -5.31769000e-001
 -5.24292000e-001
 -5.41534000e-001
 -5.29175000e-001
 -5.12238000e-001
 -5.13153000e-001
 -4.72717000e-001
 -4.44489000e-001
 -4.07257000e-001
 -3.44238000e-001
 -3.57056000e-001
 -4.28162000e-001
 -4.37469000e-001
 -4.51050000e-001
 -4.45709000e-001
 -4.21448000e-001
 -3.57208000e-001
 -3.08075000e-001
 -2.74811000e-001
 -2.89612000e-001
 -2.82440000e-001
 -3.06702000e-001
 -2.42462000e-001
 -1.91345000e-001
 -2.11334000e-001
 -2.44904000e-001
 -2.36359000e-001
 -1.70441000e-001
 -1.45264000e-001
 -1.93634000e-001
 -2.31171000e-001
 -1.69830000e-001
 -1.32141000e-001
 -1.65863000e-001
 -1.97906000e-001
 -1.84937000e-001
 -1.76849000e-001
 -2.02026000e-001
 -2.17438000e-001
 -2.58942000e-001
 -2.77863000e-001
 -2.88239000e-001
 -2.89612000e-001
 -2.98615000e-001
 -3.51257000e-001
 -3.10211000e-001
 -3.33099000e-001
 -3.03345000e-001
 -2.97546000e-001
 -2.95563000e-001
 -3.10974000e-001
 -3.36151000e-001
 -3.31421000e-001
 -3.28217000e-001
 -3.27606000e-001
 -3.10822000e-001
 -2.99683000e-001
 -2.69165000e-001
 -2.93884000e-001
 -3.19519000e-001
 -3.38898000e-001
 -3.51105000e-001
 -3.54156000e-001
 -3.62701000e-001
 -4.02374000e-001
 -3.61633000e-001
 -3.99323000e-001
 -4.16870000e-001
 -4.15955000e-001
 -4.38232000e-001
 -4.56543000e-001
 -4.78668000e-001
 -4.95758000e-001
 -5.11475000e-001
 -5.55267000e-001
 -5.73273000e-001
 -5.67627000e-001
 -6.02112000e-001
 -6.19049000e-001
 -6.21796000e-001
 -6.08826000e-001
 -6.08673000e-001
 -6.06079000e-001
 -6.39801000e-001
 -6.76727000e-001
 -6.80389000e-001
 -7.19299000e-001
 -7.31812000e-001
 -7.35779000e-001
 -7.21283000e-001
 -7.34100000e-001
 -7.09534000e-001
 -7.60956000e-001
 -7.37000000e-001
 -7.58514000e-001
 -7.03583000e-001
 -7.55310000e-001
 -7.12585000e-001
 -7.50275000e-001
 -7.26929000e-001
 -7.71484000e-001
 -7.45087000e-001
 -7.51343000e-001
 -7.65533000e-001
 -7.52563000e-001
 -7.54089000e-001
 -7.54547000e-001
 -7.65533000e-001
 -7.35474000e-001
 -7.29218000e-001
 -7.30591000e-001
 -7.55005000e-001
 -7.52563000e-001
 -7.52258000e-001
 -7.54547000e-001
 -7.18384000e-001
 -7.08008000e-001
 -7.50122000e-001
 -7.69653000e-001
 -7.69043000e-001
 -7.53937000e-001
 -7.67517000e-001
 -7.55615000e-001
 -7.75146000e-001
 -7.28455000e-001
 -7.38678000e-001
 -7.23114000e-001
 -7.13959000e-001
 -7.50122000e-001
 -7.56683000e-001
 -7.61414000e-001
 -7.39594000e-001
 -7.63245000e-001
 -7.54395000e-001
 -7.46613000e-001
 -7.23114000e-001
 -6.88324000e-001
 -6.77643000e-001
 -6.30341000e-001
 -6.43158000e-001
 -6.23322000e-001
 -5.52673000e-001
 -5.51605000e-001
 -5.54810000e-001
 -5.03082000e-001
 -4.14276000e-001
 -3.24860000e-001
 -2.61078000e-001
 -2.94647000e-001
 -2.98462000e-001
 -2.52075000e-001
 -1.26343000e-001
 -1.13525000e-001
 -4.53190000e-002
 7.49210000e-002
 2.34833000e-001
 3.04108000e-001
 4.45251000e-001
 6.19202000e-001
 7.41425000e-001
 9.72137000e-001
 1.16531400e+000
 1.42181400e+000
 1.63314800e+000
 1.81518600e+000
 1.99173000e+000
 2.14233400e+000
 2.30361900e+000
 2.51495400e+000
 2.64740000e+000
 2.63870200e+000
 2.64846800e+000
 2.64144900e+000
 2.51022300e+000
 2.00195300e+000
 1.52969400e+000
 1.10656700e+000
 7.43713000e-001
 3.77502000e-001
 1.13831000e-001
 -4.48610000e-002
 -1.94397000e-001
 -3.48511000e-001
 -3.86810000e-001
 -2.48871000e-001
 -3.50189000e-001
 -2.68097000e-001
 -4.27094000e-001
 -2.82288000e-001
 -4.37622000e-001
 -4.55475000e-001
 -5.01251000e-001
 -6.40411000e-001
 -6.99463000e-001
 -7.47681000e-001
 -8.35571000e-001
 -9.13391000e-001
 -9.88464000e-001
 -1.01272600e+000
 -9.92584000e-001
 -9.87244000e-001
 -1.05468700e+000
 -9.87396000e-001
 -9.20410000e-001
 -8.72345000e-001
 -8.48083000e-001
 -8.60596000e-001
 -9.02100000e-001
 -8.41370000e-001
 -7.90100000e-001
 -7.82166000e-001
 -7.58514000e-001
 -7.08466000e-001
 -7.13348000e-001
 -6.62384000e-001
 -6.33392000e-001
 -6.16302000e-001
 -6.56586000e-001
 -6.61469000e-001
 -6.85883000e-001
 -7.15332000e-001
 -6.92749000e-001
 -6.62079000e-001
 -6.65894000e-001
 -6.06995000e-001
 -6.30646000e-001
 -6.81000000e-001
 -7.00378000e-001
 -7.16095000e-001
 -6.90002000e-001
 -6.42242000e-001
 -6.33850000e-001
 -6.23779000e-001
 -6.30035000e-001
 -6.52161000e-001
 -6.96564000e-001
 -7.31201000e-001
 -7.02209000e-001
 -6.58417000e-001
 -6.40564000e-001
 -6.28510000e-001
 -6.18744000e-001
 -6.20728000e-001
 -6.39343000e-001
 -6.55975000e-001
 -6.68945000e-001
 -6.55365000e-001
 -6.20270000e-001
 -6.02264000e-001
 -6.13098000e-001
 -6.26221000e-001
 -5.90820000e-001
 -6.44531000e-001
 -6.80084000e-001
 -6.76575000e-001
 -6.70929000e-001
 -6.25000000e-001
 -6.11267000e-001
 -5.88837000e-001
 -5.67322000e-001
 -6.06232000e-001
 -6.37207000e-001
 -6.45294000e-001
 -6.12946000e-001
 -5.73273000e-001
 -5.70526000e-001
 -6.24542000e-001
 -6.41632000e-001
 -6.20880000e-001
 -5.86853000e-001
 -5.53284000e-001
 -5.88226000e-001
 -5.99518000e-001
 -6.07452000e-001
 -5.36652000e-001
 -5.18799000e-001
 -5.45654000e-001
 -5.97687000e-001
 -6.03180000e-001
 -5.10559000e-001
 -4.93622000e-001
 -5.62134000e-001
 -5.86243000e-001
 -5.48401000e-001
 -4.94843000e-001
 -5.34363000e-001
 -6.01196000e-001
 -5.90515000e-001
 -5.42145000e-001
 -5.08575000e-001
 -5.50537000e-001
 -5.87921000e-001
 -5.24750000e-001
 -4.61884000e-001
 -5.09796000e-001
 -5.88074000e-001
 -5.81665000e-001
 -4.93011000e-001
 -4.49371000e-001
 -5.09186000e-001
 -5.90515000e-001
 -5.74951000e-001
 -5.18799000e-001
 -5.04303000e-001
 -5.81665000e-001
 -5.80597000e-001
 -4.77142000e-001
 -4.69513000e-001
 -5.23834000e-001
 -5.32684000e-001
 -4.52728000e-001
 -4.39453000e-001
 -5.04150000e-001
 -5.12238000e-001
 -4.68750000e-001
 -4.98352000e-001
 -5.54504000e-001
 -5.40314000e-001
 -4.74701000e-001
 -4.51202000e-001
 -4.86298000e-001
 -4.82330000e-001
 -4.24194000e-001
 -4.24500000e-001
 -4.97437000e-001
 -4.30756000e-001
 -4.22516000e-001
 -4.93469000e-001
 -4.48914000e-001
 -3.74146000e-001
 -4.56238000e-001
 -4.52118000e-001
 -3.74603000e-001
 -4.45404000e-001
 -4.31824000e-001
 -3.73383000e-001
 -4.67224000e-001
 -4.22211000e-001
 -3.60565000e-001
 -4.47083000e-001
 -4.00238000e-001
 -3.51105000e-001
 -4.41437000e-001
 -3.45917000e-001
 -3.75671000e-001
 -3.85284000e-001
 -2.75269000e-001
 -3.86505000e-001
 -2.98157000e-001
 -3.66974000e-001
 -3.71552000e-001
 -2.88544000e-001
 -3.98865000e-001
 -2.63214000e-001
 -3.77502000e-001
 -2.85187000e-001
 -3.23334000e-001
 -2.62146000e-001
 -2.66724000e-001
 -2.39868000e-001
 -2.53143000e-001
 -2.06604000e-001
 -2.92206000e-001
 -2.02789000e-001
 -2.57416000e-001
 -1.58691000e-001
 -2.39105000e-001
 -1.51825000e-001
 -1.87378000e-001
 -2.16675000e-001
 -1.23901000e-001
 -2.15149000e-001
 -1.28326000e-001
 -1.45264000e-001
 -1.90582000e-001
 -9.18580000e-002
 -1.59607000e-001
 -1.11847000e-001
 -5.46260000e-002
 -1.24664000e-001
 -8.94170000e-002
 4.27200000e-003
 -3.40270000e-002
 -9.42990000e-002
 1.06800000e-003
 4.89810000e-002
 2.19730000e-002
 -2.86870000e-002
 -1.29700000e-002
 5.12700000e-002
 9.44520000e-002
 8.46860000e-002
 3.58580000e-002
 9.91800000e-003
 3.64690000e-002
 8.40760000e-002
 1.21613000e-001
 1.38245000e-001
 1.65558000e-001
 1.35651000e-001
 5.85940000e-002
 6.14930000e-002
 1.30920000e-001
